# Normal_rhythm
-1.199999999999999895e-04
9.629264560180031060e-04
1.789851609824898984e-03
2.454181863243055754e-03
3.012356549377042877e-03
3.498700337908419548e-03
3.934295113918161342e-03
4.332273361470769316e-03
4.700985654466283657e-03
5.045892071194204784e-03
5.370696634617653890e-03
5.678027484838800605e-03
5.969842729922150010e-03
6.247678250688889351e-03
6.512795056099352636e-03
6.766270314869093916e-03
7.009052191202212907e-03
7.241994961537131029e-03
7.465879619610778402e-03
7.681429301575552759e-03
7.889318333845520004e-03
8.090178305943714759e-03
8.284603412501907391e-03
8.473153964730631080e-03
8.656359293166885488e-03
8.834720371228534791e-03
9.008711532303608285e-03
9.178782745929479556e-03
9.345361098625770691e-03
9.508852247094795943e-03
9.669641916173725080e-03
9.828097080157241136e-03
9.984567268545956054e-03
1.013938490264843818e-02
1.029286744657631654e-02
1.044531894530678975e-02
1.059702864726421931e-02
1.074827299683713683e-02
1.089931666255681761e-02
1.105041300291188799e-02
1.120180498127388777e-02
1.135372558448646645e-02
1.150639871221492000e-02
1.166003878502189575e-02
1.181485223596691163e-02
1.197103721578183719e-02
1.212878481360076324e-02
1.228827985971381667e-02
1.244970016134698196e-02
1.261321698542478865e-02
1.277899564498352104e-02
1.294719648338990212e-02
1.311797456006817686e-02
1.329147974548289778e-02
1.346785695607594438e-02
1.364724689821679091e-02
1.382978611402517315e-02
1.401560701426408755e-02
1.420483791592390063e-02
1.439760347091250878e-02
1.459402485006953618e-02
1.479421979819121880e-02
1.499830268453718370e-02
1.520638460957410808e-02
1.541857352429252745e-02
1.563497448407531742e-02
1.585568958472004589e-02
1.608081801305248290e-02
1.631045610423688744e-02
1.654469734882314802e-02
1.678363248228466678e-02
1.702734955748894455e-02
1.727593397476089726e-02
1.752946852763294719e-02
1.778803347081949968e-02
1.805170647758047239e-02
1.832056271262832645e-02
1.859467431535051854e-02
1.887411052957119542e-02
1.915893792664609754e-02
1.944922076502780470e-02
1.974502090870314600e-02
2.004639973199968950e-02
2.035341273506502402e-02
2.066611382824766474e-02
2.098455544209080342e-02
2.130878661400284479e-02
2.163885428317464596e-02
2.197480324643235131e-02
2.231667588333310567e-02
2.266451253971703272e-02
2.301835158327551062e-02
2.337822949467290023e-02
2.374418101013377538e-02
2.411623938197462319e-02
2.449443659864621731e-02
2.487880384202154418e-02
2.526937166087358036e-02
2.566616992111804552e-02
2.606922840502209904e-02
2.647857730800637355e-02
2.689424801035745702e-02
2.731627353567658498e-02
2.774468849188981706e-02
2.817952962255752813e-02
2.862083700727137067e-02
2.906865506263362625e-02
2.952303320694243949e-02
2.998402573264565343e-02
3.045169327934296732e-02
3.092610415833384890e-02
3.140733480639303077e-02
3.189547072766966973e-02
3.239060767696097520e-02
3.289285261086295070e-02
3.340232457333167787e-02
3.391915541267599005e-02
3.444349047005935277e-02
3.497548961127722872e-02
3.551532740755340700e-02
3.606319351007529483e-02
3.661929230684142500e-02
3.718384075410535727e-02
3.775706765062838977e-02
3.833921201683196389e-02
3.893052048884323990e-02
3.953124074183753112e-02
4.014161327202570018e-02
4.076186654417009170e-02
4.139220530555251520e-02
4.203279293681341094e-02
4.268373494021833470e-02
4.334505621814063042e-02
4.401666909610245371e-02
4.469833721326208625e-02
4.538962867650178645e-02
4.608985668575926731e-02
4.679800770711137203e-02
4.751265116974807967e-02
4.823182778413120930e-02
4.895291325182109937e-02
4.967244287004318748e-02
5.038590348478017011e-02
5.108747549696382451e-02
5.176970748728121352e-02
5.242312732064415698e-02
5.303574449797207602e-02
5.359245600147911903e-02
5.407430845264449976e-02
5.445758224811433207e-02
5.471267604323001160e-02
5.480274868770828450e-02
5.468205490097364369e-02
5.429393981779565004e-02
5.356845261054059976e-02
5.241956129665033270e-02
5.074200689185494328e-02
4.840799296707003901e-02
4.526412501572491670e-02
4.112949274007599715e-02
3.579673500549310217e-02
2.903923087762349739e-02
2.063006286515951110e-02
1.038130682474080330e-02
-1.785210581514172501e-03
-1.572680895463565015e-02
-3.093532186429166775e-02
-4.640411789546493304e-02
-6.060309257736296723e-02
-7.166528200379046476e-02
-7.777841467721881286e-02
-7.758859009025254050e-02
-7.035705812756701261e-02
-5.576188559565448122e-02
-3.341833465533496778e-02
-2.182729836837224088e-03
4.094161401064875389e-02
1.029894563767831395e-01
1.995997057422351229e-01
3.565088473282851944e-01
5.402790259779817195e-01
5.754690741866366199e-01
4.848409844187823725e-01
3.810552466073677258e-01
2.958609893721772521e-01
2.303077423763419396e-01
1.801329554587036141e-01
1.412521601285407769e-01
1.105771161113812406e-01
8.590124039433305603e-02
6.566128820883455897e-02
4.873786893778821877e-02
3.431259810085491441e-02
2.177046749787810848e-02
1.063373084572150074e-02
5.167188797602154104e-04
-8.905701202777421832e-03
-1.792078101788348310e-02
-2.679465033849631750e-02
-3.578488938457243668e-02
-4.514958376492519271e-02
-5.515249060357555605e-02
-6.606266202903485207e-02
-7.814515532467189440e-02
-9.163727566887829024e-02
-1.067028762400592801e-01
-1.233577137710978600e-01
-1.413668078107027659e-01
-1.601363837058818462e-01
-1.786571880399972778e-01
-1.955780439794105596e-01
-2.094506520421001161e-01
-2.190769880422958615e-01
-2.237951537274325553e-01
-2.235687737587575274e-01
-2.188764785707402460e-01
-2.105008383806466210e-01
-1.993224922910269425e-01
-1.861748199900006284e-01
-1.717663385459222980e-01
-1.566545103788765936e-01
-1.412504989946204714e-01
-1.258387941944725252e-01
-1.106015522177549171e-01
-9.564223348191658314e-02
-8.100618362923732441e-02
-6.669753874234338187e-02
-5.269273137302477733e-02
-3.895122965206419818e-02
-2.542429423433761188e-02
-1.206251097839067775e-02
1.177171701848424290e-03
1.432428731688988044e-02
2.738711084156974715e-02
4.034412865045079039e-02
5.313498629898942560e-02
6.565189683653460673e-02
7.773347010193314144e-02
8.916394958844892082e-02
9.968137979059825404e-02
1.089975231111194043e-01
1.168296691998451514e-01
1.229400559434370294e-01
1.271741678593890090e-01
1.294873523274758798e-01
1.299519281141319760e-01
1.287433815655490144e-01
1.261110569706706819e-01
1.223425323716863800e-01
1.177304814927648824e-01
1.125475908166738009e-01
1.070312810874278486e-01
1.013771801339014844e-01
9.573897918983181876e-02
9.023215290154351642e-02
8.493950399581526312e-02
7.991714392446745696e-02
7.520009220966700214e-02
7.080711950640398988e-02
6.674470867274510943e-02
6.301016617836818767e-02
5.959398130210542821e-02
5.648154815985396981e-02
5.365436526392772243e-02
5.109080531922316482e-02
4.876653346432309466e-02
4.665462782821046955e-02
4.472544128009435516e-02
4.294622801989653182e-02
4.128054300275350169e-02
3.968741497358921344e-02
3.812028586885658765e-02
3.652570409285753328e-02
3.484176536527342632e-02
3.299630583043811766e-02
3.090488737276718759e-02
2.846868126919157790e-02
2.557247525937744737e-02
2.208328483256472019e-02
1.785036112159921196e-02
1.270809464116930132e-02
6.484283381663784318e-03
-9.825396026653457349e-04
-9.811438418761399272e-03
-2.002735305142584049e-02
-3.148644206171782867e-02
-4.378596134685131674e-02
-5.618673970704014115e-02
-6.760067356105586844e-02
-7.669773905081321563e-02
-8.213575580183302138e-02
-8.282460169944724782e-02
-7.808484307585764062e-02
-6.761153946362130629e-02
-5.125694553709497781e-02
-2.869417436293005691e-02
1.025826227473821545e-03
4.014203399284942131e-02
9.339535850237380699e-02
1.701820097137391463e-01
2.852174330343870690e-01
4.337440690818285538e-01
5.222598453313068712e-01
4.873184808735196438e-01
4.017839101052094186e-01
3.186719341510840797e-01
2.506563670114871911e-01
1.972728074939681109e-01
1.555131111986953751e-01
1.225058260987023084e-01
9.600359505249342340e-02
7.433882656256859955e-02
5.628449793910574039e-02
4.092684003315442964e-02
2.756843019086653926e-02
1.565829139271553150e-02
4.741863313512909017e-03
-5.575379857990600541e-03
-1.565515552715764092e-02
-2.584728568815562039e-02
-3.650558766479100603e-02
-4.799829610493339810e-02
-6.071016576353563399e-02
-7.502974344316476474e-02
-9.131009736952364064e-02
-1.097858808216885668e-01
-1.304303895290391813e-01
-1.527584813831143751e-01
-1.756437481903542763e-01
-1.973041702256797814e-01
-2.156136753459207134e-01
-2.286965563112257349e-01
-2.354844689735454133e-01
-2.359074421324223736e-01
-2.306906340251439480e-01
-2.209769249279124603e-01
-2.079909177668372300e-01
-1.928314471498945859e-01
-1.763826142898923532e-01
-1.593010224696796429e-01
-1.420409181645705399e-01
-1.248926115343236276e-01
-1.080212595062586406e-01
-9.150057443217232689e-02
-7.534001854743577198e-02
-5.950595818148209093e-02
-4.393800836076619531e-02
-2.856203368769628936e-02
-1.330126808223507442e-02
1.913037811748304236e-03
1.713014218135180955e-02
3.236642213476467744e-02
4.758948853393368816e-02
6.270029109701927283e-02
7.751560990841853405e-02
9.175612985294441526e-02
1.050481943969059362e-01
1.169482655279142497e-01
1.269951637341162065e-01
1.347846699336574250e-01
1.400477194930350722e-01
1.427057749246367635e-01
1.428830591148410878e-01
1.408733207538235555e-01
1.370770858868823050e-01
1.319328647222900164e-01
1.258610408304478012e-01
1.192286116406390123e-01
1.123339276295029499e-01
1.054058802802297634e-01
9.861134884165352610e-02
9.206603843924833497e-02
8.584565381957789953e-02
7.999585512820944766e-02
7.454043220569575579e-02
6.948767742760687816e-02
6.483518482249420178e-02
6.057337697819711875e-02
5.668804996706834631e-02
5.316218212740098092e-02
4.997720115987250300e-02
4.711385610425905535e-02
4.455280372631368474e-02
4.227498678758524753e-02
4.026186102936837874e-02
3.849551063617938362e-02
3.695867921124263572e-02
3.563473675883629954e-02
3.450759345710553705e-02
3.356156899915489072e-02
3.278122098667932138e-02
3.215113339350641336e-02
3.165566367239545237e-02
3.127864404420943600e-02
3.100303194003803386e-02
3.081050149494264298e-02
3.068096530493139712e-02
3.059201620444801373e-02
3.051827714139832698e-02
3.043064469347736556e-02
3.029541377276821074e-02
3.007327500586665092e-02
2.971818710357809409e-02
2.917613735251319354e-02
2.838382554962506910e-02
2.726741290955737862e-02
2.574146227306846682e-02
2.370845133960773968e-02
2.105941963108393794e-02
1.767669516449265482e-02
1.344012256288321105e-02
8.238959281908313226e-03
1.992192229384522062e-03
-5.319732110554684090e-03
-1.360996813933147698e-02
-2.262962077543974326e-02
-3.191266052673511627e-02
-4.074437759806384673e-02
-4.818336778786491692e-02
-5.315554555916536528e-02
-5.460143649817143785e-02
-5.161357874043630278e-02
-4.348559354747007916e-02
-2.962223395181785152e-02
-9.296003858262087000e-03
1.877317657651373164e-02
5.712992373812190994e-02
1.108782908020108232e-01
1.897761470174337828e-01
3.073820177103128715e-01
4.501829714435055529e-01
5.200898791871418902e-01
4.753315235737820554e-01
3.895511493829362237e-01
3.084031185195506009e-01
2.422391274032838770e-01
1.902557351597406465e-01
1.495021498789504411e-01
1.171872463288085864e-01
9.110219503637748129e-02
6.957492654628956441e-02
5.133775570413324357e-02
3.540353906940027495e-02
2.096737721993262304e-02
7.330807116592619188e-03
-6.158063403835109528e-03
-2.015372437888477558e-02
-3.535356104290100776e-02
-5.252466919481927482e-02
-7.249967474820989688e-02
-9.609925225934914939e-02
-1.239018757121128356e-01
-1.557656166036405776e-01
-1.901390828585830528e-01
-2.236330304446628170e-01
-2.517051958630199815e-01
-2.705364979621058819e-01
-2.786168315283217845e-01
-2.767742100341272771e-01
-2.671337845718315673e-01
-2.520836251245406334e-01
-2.336995785881508247e-01
-2.135583419522197879e-01
-1.927540073698527645e-01
-1.719885112337637967e-01
-1.516721366793314651e-01
-1.320098470507888866e-01
-1.130678777589015083e-01
-9.482230479599931816e-02
-7.719343723177052308e-02
-6.006998357194463789e-02
-4.332640884538681292e-02
-2.683631199055248537e-02
-1.048415072874525275e-02
5.822722544066336048e-03
2.214012724329338447e-02
3.847025008770670745e-02
5.474217885327774258e-02
7.079211321944549329e-02
8.634880970235427056e-02
1.010332829827387813e-01
1.143831757038012431e-01
1.259079124620385848e-01
1.351690906866612196e-01
1.418651135735665147e-01
1.458907220383193759e-01
1.473495338455782788e-01
1.465182945061006825e-01
1.437813882128386178e-01
1.395610803452322912e-01
1.342624580841271509e-01
1.282402558362626122e-01
1.217854474059341663e-01
1.151253793295807099e-01
1.084311278790571625e-01
1.018274721061730032e-01
9.540279826625527870e-02
8.921770425052411024e-02
8.331195293827481363e-02
7.770985957370797614e-02
7.242437160008144414e-02
6.746012217531459354e-02
6.281570800151052569e-02
5.848539062303247105e-02
5.446037141302616930e-02
5.072975347276040964e-02
4.728126667602135930e-02
4.410181639170495521e-02
4.117790054737453104e-02
3.849592096973782768e-02
3.604241731256039444e-02
3.380423868491910788e-02
3.176866723004406756e-02
2.992350510811214725e-02
2.825713017300650678e-02
2.675853137741176363e-02
2.541732661249103409e-02
2.422376628453533354e-02
2.316872553860706285e-02
2.224369294932964161e-02
2.144074926678932180e-02
2.075254587624066754e-02
2.017227852569477425e-02
1.969366042585225796e-02
1.931089441118475497e-02
1.901864476321553019e-02
1.881200877819608555e-02
1.868648865714790663e-02
1.863796829484916373e-02
1.866267887488027091e-02
1.875718063544292574e-02
1.891833760641906809e-02
1.914329232680694187e-02
1.942944146598220984e-02
1.977441587647098611e-02
2.017605931818086673e-02
2.063240660682815267e-02
2.114166022096770556e-02
2.170217162871920444e-02
2.231241978715723176e-02
2.297098744780921853e-02
2.367653815793397537e-02
2.442779096710052250e-02
2.522349447393180955e-02
2.606239563061613085e-02
2.694320614905436687e-02
2.786456376761866499e-02
2.882498810946002715e-02
2.982282898809197544e-02
3.085620591644178123e-02
3.192293553615894314e-02
3.302044350379759047e-02
3.414566426143095246e-02
3.529491611616407398e-02
3.646375179215347040e-02
3.764677325023994131e-02
3.883741544883494157e-02
4.002767886598557201e-02
4.120780408496246133e-02
4.236587177594045711e-02
4.348732798406940853e-02
4.455440004354802030e-02
4.554538442737957743e-02
4.643378938084179869e-02
4.718729978304512379e-02
4.776653629366277992e-02
4.812357738369235638e-02
4.820023269164931679e-02
4.792606598477812396e-02
4.721621145132434000e-02
4.596911148875203190e-02
4.406447649208048573e-02
4.136203705112034140e-02
3.770216523953227872e-02
3.291023358841217716e-02
2.680782163688658418e-02
1.923557766190721677e-02
1.009410905056435520e-02
-5.906011658988602475e-04
-1.257568179090937099e-02
-2.529753736769822445e-02
-3.779637899853443422e-02
-4.873450826933297536e-02
-5.655918059317742441e-02
-5.977811164775020947e-02
-5.720955753986304432e-02
-4.804430918645449800e-02
-3.164251879690218455e-02
-7.070300173228194658e-03
2.767685586306752044e-02
7.709192427784425372e-02
1.510513982636736696e-01
2.690082608715710921e-01
4.424328498730190629e-01
5.660810000167602052e-01
5.294716647487842653e-01
4.295524442182597769e-01
3.356359913691884245e-01
2.608706584563879050e-01
2.033192834269291760e-01
1.589212699366231718e-01
1.241815974596713334e-01
9.648818932489719447e-02
7.395392319464963449e-02
5.521312847510696786e-02
3.925843683266026091e-02
2.532336023230333244e-02
1.280000816917368361e-02
1.180992554296503294e-03
-9.982739338945986751e-03
-2.111364210497820165e-02
-3.263198470661472089e-02
-4.497367013894464083e-02
-5.859911440672256611e-02
-7.398614510807866029e-02
-9.159247734059884627e-02
-1.117641332149844485e-01
-1.345621605286853872e-01
-1.595034806899862101e-01
-1.852976764804872278e-01
-2.097981476092014019e-01
-2.304103840831471517e-01
-2.448972263286229856e-01
-2.520969531561886856e-01
-2.521004570318370330e-01
-2.459156577336110427e-01
-2.349644919013554323e-01
-2.206848104282633505e-01
-2.043129757361576981e-01
-1.868091482526307301e-01
-1.688639980519996142e-01
-1.509404678678980261e-01
-1.333240619429404694e-01
-1.161692968591437891e-01
-9.953798523757048655e-02
-8.342893710646583083e-02
-6.780027139863586960e-02
-5.258601834356566723e-02
-3.770867308115483096e-02
-2.308919273914883039e-02
-8.655720000848627152e-03
5.647916772223191863e-03
1.985309864660779119e-02
3.395625277773115652e-02
4.790776954621601968e-02
6.160109484042380207e-02
7.486441780824569514e-02
8.745885205557336894e-02
9.908785090640306881e-02
1.094216830965439591e-01
1.181370705984950698e-01
1.249658953968374037e-01
1.297409773001428068e-01
1.324252103800263314e-01
1.331151072454235529e-01
1.320191407899017344e-01
1.294197428854778342e-01
1.256312341415544709e-01
1.209638229871806692e-01
1.156988348877166367e-01
1.100756202275292861e-01
1.042877727784170122e-01
9.848541424347148632e-02
9.278065556102750577e-02
8.725416276292774498e-02
8.196159121384276325e-02
7.693926714089992236e-02
7.220891286236028050e-02
6.778141913999119472e-02
6.365978302524027965e-02
5.984135382824987137e-02
5.631952977946161343e-02
5.308502994405898956e-02
5.012683994456394038e-02
4.743290974877378136e-02
4.499066942629875721e-02
4.278739999622662576e-02
4.081050179782687304e-02
3.904768206748063242e-02
3.748708185241067525e-02
3.611735820906315092e-02
3.492772718004972382e-02
3.390798531157435819e-02
3.304850546757261143e-02
3.234021936183874985e-02
3.177458076063890274e-02
3.134352195008850706e-02
3.103939754739839033e-02
3.085491674913427157e-02
3.078306673278638494e-02
3.081702310665665467e-02
3.095004886692511586e-02
3.117537832936431372e-02
3.148608116749232466e-02
3.187490675621820757e-02
3.233410033157083086e-02
3.285518828110833151e-02
3.342872996712906164e-02
3.404401908776121671e-02
3.468872726278043189e-02
3.534848487544782480e-02
3.600637986459997303e-02
3.664236037270702379e-02
3.723252724443382872e-02
3.774829446876889344e-02
3.815540265834674316e-02
3.841277022225020321e-02
3.847117606050368122e-02
3.827178667065789242e-02
3.774457436362396723e-02
3.680673831965096399e-02
3.536134564418788595e-02
3.329662626028180583e-02
3.048661392403370293e-02
2.679439249101721668e-02
2.207983878277596304e-02
1.621481242825791036e-02
9.109603271083580034e-03
7.547426951923924543e-04
-8.719696552462276318e-03
-1.897212947121551183e-02
-2.938312144219598632e-02
-3.902960886106857097e-02
-4.673975552265902111e-02
-5.124095046999967151e-02
-5.135240242249708431e-02
-4.612068230763749499e-02
-3.480146498411883227e-02
-1.664318693789708023e-02
9.547448867194189767e-03
4.615866909459954981e-02
9.817750912766601279e-02
1.757942993978683643e-01
2.959120244357963392e-01
4.542520979887664789e-01
5.427064542023901650e-01
4.974530294087866622e-01
4.048015273797772595e-01
3.182355481185188406e-01
2.485849914809787897e-01
1.944093505773199781e-01
1.522548853955398018e-01
1.190274439389142624e-01
9.234770184435076024e-02
7.045240959678857051e-02
5.203068256695420057e-02
3.608336254848261426e-02
2.181662636391028254e-02
8.563370701494370241e-03
-4.276093955134181723e-03
-1.728063106354540968e-02
-3.104578218613016777e-02
-4.621163299895664212e-02
-6.347331929888513913e-02
-8.355313578973302957e-02
-1.070909734343228059e-01
-1.343859443245147278e-01
-1.649409328812753428e-01
-1.969308055026971205e-01
-2.270681501652247469e-01
-2.514389383959673152e-01
-2.670631390374807457e-01
-2.729666435659121038e-01
-2.700398152006266428e-01
-2.601776505957071883e-01
-2.454688995483891856e-01
-2.277384345569489765e-01
-2.083897769959872359e-01
-1.884120201134190931e-01
-1.684511719792398665e-01
-1.488935514425559492e-01
-1.299396767344818959e-01
-1.116626388769068889e-01
-9.405153946419833599e-02
-7.704278540778158879e-02
-6.054239394057145396e-02
-4.444212627973925106e-02
-2.863183698717652881e-02
-1.300998676493570795e-02
2.506067347661154049e-03
1.796873087750271158e-02
3.338698425074523163e-02
4.871138662072731912e-02
6.381872689398135345e-02
7.849992280453463311e-02
9.245715313537625213e-02
1.053176008225510801e-01
1.166694702635987374e-01
1.261192677835803189e-01
1.333590440220192852e-01
1.382238109326258402e-01
1.407196329575994553e-01
1.410138352252731098e-01
1.393940748818276176e-01
1.362131994915267708e-01
1.318372549431939267e-01
1.266073613552325672e-01
1.208181735079117691e-01
1.147102402992075526e-01
1.084715601781982008e-01
1.022439540584482720e-01
9.613112610663589186e-02
9.020658212492875527e-02
8.452055139883371537e-02
7.910565084283815995e-02
7.398134286051959163e-02
6.915736214129533654e-02
6.463631555970246467e-02
6.041564333089809169e-02
5.648909486534943458e-02
5.284784027363824410e-02
4.948130835958380880e-02
4.637781879789508455e-02
4.352505896899749871e-02
4.091044181146877984e-02
3.852137407349105758e-02
3.634545383735834911e-02
3.437061471851345779e-02
3.258522807404606175e-02
3.097817312359769579e-02
2.953888111771474367e-02
2.825736169562226632e-02
2.712421315590123061e-02
2.613062274885660091e-02
2.526835726267138982e-02
2.452974756466837214e-02
2.390766944600113825e-02
2.339552118955277524e-02
2.298719721927862392e-02
2.267706243284356438e-02
2.245992592192722764e-02
2.233101204701008063e-02
2.228593321153549134e-02
2.232066325292702408e-02
2.243150916643287321e-02
2.261508470321635725e-02
2.286828348366703317e-02
2.318825185614113715e-02
2.357236252747081998e-02
2.401818665352423859e-02
2.452346509044078110e-02
2.508608202501127343e-02
2.570402764665237136e-02
2.637537049797627348e-02
2.709821778788603502e-02
2.787067519432728097e-02
2.869080140431686313e-02
2.955655437809384320e-02
3.046573000427904576e-02
3.141589227522068040e-02
3.240428842099416645e-02
3.342774937419783210e-02
3.448257116977838932e-02
3.556437210716088815e-02
3.666792100742653771e-02
3.778693042349945408e-02
3.891380602502127889e-02
4.003934441440781811e-02
4.115236084961587659e-02
4.223924564652790925e-02
4.328342250844470496e-02
4.426469280870648504e-02
4.515843941032502556e-02
4.593467232305008946e-02
4.655688158897771517e-02
4.698067083742343830e-02
4.715215526118354816e-02
4.700612071002101960e-02
4.646396483528933419e-02
4.543152618353573508e-02
4.379702592168987357e-02
4.142957187188353596e-02
3.817911188048583870e-02
3.387930211701049854e-02
2.835590331022633942e-02
2.144467827783443775e-02
1.302443451778252659e-02
3.071702699605848019e-03
-8.259247584277033816e-03
-2.053775085884088081e-02
-3.296835774060991042e-02
-4.436853660948054251e-02
-5.327227479897998080e-02
-5.816450810216808320e-02
-5.774895310329896531e-02
-5.108946992813849508e-02
-3.751185502718029641e-02
-1.624765337591086226e-02
1.419318127022571249e-02
5.711268189823050928e-02
1.197884519191305674e-01
2.174671155092320340e-01
3.708441086187294067e-01
5.341957466719771119e-01
5.554124691831365812e-01
4.680170982351669062e-01
3.691222389793650249e-01
2.871677118084392522e-01
2.235834911414234794e-01
1.746340352030358589e-01
1.365513590004935052e-01
1.064084896559164550e-01
8.206920834672988552e-02
6.198870931239093551e-02
4.503471514687519550e-02
3.035434100037713578e-02
1.727986880909671702e-02
5.262256921371631646e-03
-6.176835059437627007e-03
-1.748092327798961981e-02
-2.908635265321165425e-02
-4.144313040384117047e-02
-5.502729906487378864e-02
-7.033853637657287716e-02
-8.786918197853321733e-02
-1.080206256638765877e-01
-1.309356801341668708e-01
-1.562326578576973546e-01
-1.827078898520724526e-01
-2.082247842997154985e-01
-2.300748915315613818e-01
-2.458134167638451606e-01
-2.540774048903843285e-01
-2.548454033533014695e-01
-2.491124021466793181e-01
-2.383498012427326396e-01
-2.240664101609669834e-01
-2.075657797023291451e-01
-1.898612958830558084e-01
-1.716814873053263690e-01
-1.535140849726203682e-01
-1.356595181108734005e-01
-1.182802938765046830e-01
-1.014415782710081787e-01
-8.514255724721793428e-02
-6.933989134043389013e-02
-5.396506948265147180e-02
-3.893745314592568507e-02
-2.417459493333369569e-02
-9.601178607763143774e-03
4.842288512752470839e-03
1.919016228481420019e-02
3.344123413305775949e-02
4.754728947727521193e-02
6.140175918533796739e-02
7.483095217957748402e-02
8.759192274675696444e-02
9.938194180492358754e-02
1.098636280618686401e-01
1.187058783361445435e-01
1.256342790031950429e-01
1.304783747227452051e-01
1.332014700819732778e-01
1.339037607891534198e-01
1.327994125411010029e-01
1.301770404687077609e-01
1.263564232628915929e-01
1.216518626424529514e-01
1.163473093408902703e-01
1.106835088539676742e-01
1.048545887045840980e-01
9.901069868346863700e-02
9.326374359437528128e-02
8.769412733377784930e-02
8.235728140245598961e-02
7.728938818770478281e-02
7.251210910380426200e-02
6.803634572876281206e-02
6.386515740632106586e-02
5.999598731948821428e-02
5.642234314695226960e-02
5.313505534434895955e-02
5.012321239404686490e-02
4.737485741954022833e-02
4.487749616222670712e-02
4.261847167607800413e-02
4.058523291424934176e-02
3.876552518843697642e-02
3.714752272119035970e-02
3.571991194888559512e-02
3.447194606452300830e-02
3.339347010156858142e-02
3.247492585123257225e-02
3.170734034621391917e-02
3.108230446007120146e-02
3.059193802538591120e-02
3.022884875776362529e-02
2.998608231505656835e-02
2.985706462553432139e-02
2.983553749811203998e-02
2.991548565504233842e-02
3.009105432571540506e-02
3.035645578094999311e-02
3.070586462125895685e-02
3.113329058467992697e-02
3.163244340315102265e-02
3.219656512526471864e-02
3.281823913363895312e-02
3.348916003662148061e-02
3.419986620561465268e-02
3.493941929807620889e-02
3.569502158276426779e-02
3.645156144095666739e-02
3.719106913929681041e-02
3.789206837039811593e-02
3.852880572868375153e-02
3.907033285720420968e-02
3.947943792294679455e-02
3.971139826970181141e-02
3.971255906899507498e-02
3.941876249577185021e-02
3.875369090787932069e-02
3.762727923338730213e-02
3.593448485456354757e-02
3.355496441561406362e-02
3.035456442582639899e-02
2.619019388848262131e-02
2.092044558311680763e-02
1.442548204498468600e-02
6.640461166433561657e-03
-2.393583073605605460e-03
-1.246135162323541712e-02
-2.309761854310379836e-02
-3.353110711608081607e-02
-4.268998344822794166e-02
-4.930364648666401423e-02
-5.208827469040795688e-02
-4.993500367037025101e-02
-4.198739819146801722e-02
-2.753005375808369182e-02
-5.663932517557380628e-03
2.527368540188328766e-02
6.874342426275723006e-02
1.320003034218572568e-01
2.292097193643082287e-01
3.755077203764177751e-01
5.200079140118698540e-01
5.347651097745276250e-01
4.533855338327725248e-01
3.599702756353690414e-01
2.813414137985145169e-01
2.196943530748795004e-01
1.719039816217332317e-01
1.345388303976045030e-01
1.048418036562873690e-01
8.075493986015155889e-02
6.076030236910985594e-02
4.372104453689842907e-02
2.875715907510583910e-02
1.515389903077234146e-02
2.294128108428244994e-03
-1.039332282041217220e-02
-2.347465973502811665e-02
-3.754356979001044481e-02
-5.324230818724948883e-02
-7.125994651862736784e-02
-9.228074752698690875e-02
-1.168326763506528643e-01
-1.449716547607594330e-01
-1.757944784101396207e-01
-2.070037766336361162e-01
-2.350669493689352685e-01
-2.563363707390595714e-01
-2.685142331499040247e-01
-2.713049386921150274e-01
-2.659754825193489935e-01
-2.544904461595371981e-01
-2.388322990899773568e-01
-2.206613800441215578e-01
-2.012227273413244588e-01
-1.813771595853289897e-01
-1.616760769485258153e-01
-1.424401754645716611e-01
-1.238266917037931236e-01
-1.058816618346635208e-01
-8.857851633026715688e-02
-7.184583984200318407e-02
-5.558724721537286473e-02
-3.969595856211734219e-02
-2.406625402064890146e-02
-8.603585695227669236e-03
6.765185958866368199e-03
2.208031619093897904e-02
3.733588131018603096e-02
5.246501514449616183e-02
6.732557289046248172e-02
8.169027806289282101e-02
9.524754250394085187e-02
1.076199581652607790e-01
1.184046452852029196e-01
1.272322494694232142e-01
1.338314221228691092e-01
1.380790573167230972e-01
1.400193137661879528e-01
1.398465086343515795e-01
1.378611064163444699e-01
1.344158098148763580e-01
1.298673945687709719e-01
1.245429408002307753e-01
1.187218103885215037e-01
1.126302218669172628e-01
1.064438704901942007e-01
1.002945784038615923e-01
9.427820265749671524e-02
8.846222711200207867e-02
8.289232146754944852e-02
7.759768298767877326e-02
7.259522815188589051e-02
6.789281165281424446e-02
6.349166883523044147e-02
5.938825768305942832e-02
5.557564481409926760e-02
5.204454879620144803e-02
4.878412568503359692e-02
4.578256034891590304e-02
4.302751155471767897e-02
4.050644492973745625e-02
3.820688067033076174e-02
3.611657564036296897e-02
3.422365475799107187e-02
3.251670300595365520e-02
3.098482762565369156e-02
2.961769671682450839e-02
2.840555990323910887e-02
2.733925519555622380e-02
2.641020582246022402e-02
2.561040883918013628e-02
2.493241823024659395e-02
2.436932407034003017e-02
2.391472857472388969e-02
2.356272010239059134e-02
2.330784607863808922e-02
2.314508534414615876e-02
2.306981966380186599e-02
2.307780542253465988e-02
2.316514550805378464e-02
2.332826067630510564e-02
2.356386120075932428e-02
2.386891833515327604e-02
2.424063510329012294e-02
2.467641652515389569e-02
2.517383875853303893e-02
2.573061648978670554e-02
2.634456800740954396e-02
2.701357720419570937e-02
2.773555202759650853e-02
2.850837760047899086e-02
2.932986330329530669e-02
3.019768060583601088e-02
3.110929298384361788e-02
3.206187246072400576e-02
3.305220082822340338e-02
3.407655213401687005e-02
3.513055287752475664e-02
3.620901320591458222e-02
3.730572406631437604e-02
3.841321232366422950e-02
3.952244410243015843e-02
4.062246578295140159e-02
4.169996883933261428e-02
4.273876237099074465e-02
4.371913604885357962e-02
4.461708534311047830e-02
4.540338256674209677e-02
4.604246467677704929e-02
4.649110794907315714e-02
4.669687106863013026e-02
4.659630062131323025e-02
4.611292556124817199e-02
4.515512953742580049e-02
4.361410348050308999e-02
4.136231947502055917e-02
3.825328304417566216e-02
3.412403026112338644e-02
2.880267553837003586e-02
2.212483992555970211e-02
1.396425934601042834e-02
4.283887994067904492e-03
-6.788245440046455914e-03
-1.886333536445820164e-02
-3.120140434745298161e-02
-4.267794634479743499e-02
-5.186792793394095352e-02
-5.726218554624776941e-02
-5.753403455326693006e-02
-5.170213624002382991e-02
-3.906719382882856834e-02
-1.889288352518021102e-02
1.017609190941814838e-02
5.111460104327403275e-02
1.104720510293885904e-01
2.021126066680433431e-01
3.472351382555922128e-01
5.170110011739139644e-01
5.605380013579814857e-01
4.808765624371980074e-01
3.811210111249308530e-01
2.967509699863791761e-01
2.309895036796153489e-01
1.803645475699556244e-01
1.410439338095801354e-01
1.099930311319523013e-01
8.498471934806128836e-02
6.440718048864801926e-02
4.708074016034777959e-02
3.211929333799932312e-02
1.883168382286000420e-02
6.652030493185814852e-03
-4.910500930857784885e-03
-1.630921084682521172e-02
-2.798879990231702142e-02
-4.040733566562650092e-02
-5.404976814486849024e-02
-6.942676175234477332e-02
-8.704490807312684209e-02
-1.073236071900442734e-01
-1.304255783197067753e-01
-1.559840232544626726e-01
-1.827918338906662776e-01
-2.086774542188663817e-01
-2.308691227555721703e-01
-2.468582664953279660e-01
-2.552495278211903695e-01
-2.560284510927960389e-01
-2.502209924201710400e-01
-2.393341283494327953e-01
-2.249056205791171159e-01
-2.082583324334756902e-01
-1.904165485145569436e-01
-1.721137063685856117e-01
-1.538386788646885217e-01
-1.358909010693151731e-01
-1.184308181798209014e-01
-1.015211113240250679e-01
-8.515842615326316145e-02
-6.929702382256774928e-02
-5.386623549901255886e-02
-3.878356668559818088e-02
-2.396506168369707396e-02
-9.334309808855587379e-03
5.168766939995414825e-03
1.957845539344749489e-02
3.389264586784720285e-02
4.806119130623932867e-02
6.197440782989648012e-02
7.545432077528062276e-02
8.825283505595545031e-02
1.000619388277542432e-01
1.105399566668267275e-01
1.193537760281495608e-01
1.262302131741859790e-01
1.310034241989969372e-01
1.336438231614698047e-01
1.342596122860415520e-01
1.330721734160662528e-01
1.303753726784840083e-01
1.264918640469220590e-01
1.217366856316879076e-01
1.163929769977540274e-01
1.106997827379556376e-01
1.048491864722423117e-01
9.898932346480171507e-02
9.323032097063278789e-02
8.765112619993256637e-02
8.230604365688450053e-02
7.723042276652040961e-02
7.244533581397392952e-02
6.796128605515572296e-02
6.378107766077548146e-02
5.990200231596644331e-02
5.631748798508139087e-02
5.301833345107291595e-02
4.999362775386166635e-02
4.723143144571974317e-02
4.471927934635286372e-02
4.244454765926543305e-02
4.039471978249008915e-02
3.855757524193052788e-02
3.692132023836032506e-02
3.547467431396154891e-02
3.420692316428651514e-02
3.310794577219827034e-02
3.216822187167078101e-02
3.137882431833414337e-02
3.073139855296612086e-02
3.021813405866621838e-02
2.983172655853379152e-02
2.956533411235448897e-02
2.941252682024650400e-02
2.936722937923865601e-02
2.942365760009334197e-02
2.957624798725146109e-02
2.981957826639237627e-02
3.014827661955392715e-02
3.055691983693396147e-02
3.103991697282032156e-02
3.159137334419896692e-02
3.220493128494809204e-02
3.287358555269406096e-02
3.358946560788728802e-02
3.434357490411419495e-02
3.512548096465503700e-02
3.592294909009322024e-02
3.672150319815845054e-02
3.750389697168620556e-02
3.824948363519761751e-02
3.893347189892182314e-02
3.952603430856425903e-02
3.999125849099921526e-02
4.028592732250659003e-02
4.035811405804287655e-02
4.014561790389977597e-02
3.957428751235218811e-02
3.855636415943325401e-02
3.698910311543018858e-02
3.475413845090141035e-02
3.171847451681394925e-02
2.773844277989888363e-02
2.266892404273853148e-02
1.638111402612205114e-02
8.793148522559676716e-03
-8.208354028090003585e-05
-1.007065502842970084e-02
-2.076029710283204543e-02
-3.143580976830986917e-02
-4.106818354874536281e-02
-4.839773406724755256e-02
-5.211122400051710485e-02
-5.104278954323275552e-02
-4.428323813630660050e-02
-3.110679429711068686e-02
-1.068342501866452118e-02
1.845270659496191235e-02
5.933802159972705048e-02
1.183751195401927525e-01
2.084458813243177389e-01
3.469932041432182146e-01
5.028884969726585830e-01
5.438119049103052882e-01
4.708850488878855711e-01
3.759287120840787977e-01
2.940091460628733722e-01
2.294597508780298889e-01
1.794517112759882738e-01
1.404556564054345313e-01
1.095705662804936087e-01
8.462112869127838555e-02
6.400591696915680640e-02
4.653226827706587881e-02
3.128498542621621636e-02
1.752946808813411750e-02
4.640630761476874366e-03
-7.950759341649085710e-03
-2.080027139184486423e-02
-3.448339771385141445e-02
-4.961914399891893118e-02
-6.687494620402453793e-02
-8.693111470433262378e-02
-1.103623014055823276e-01
-1.373747065864794059e-01
-1.673671748206655985e-01
-1.984576086020272412e-01
-2.274319012730768308e-01
-2.505957620117871820e-01
-2.652202816932239249e-01
-2.704732379807892051e-01
-2.672465609279780496e-01
-2.573557757573342042e-01
-2.427933831491007610e-01
-2.253043383500152597e-01
-2.062367633536980049e-01
-1.865458233356790119e-01
-1.668591909569610565e-01
-1.475550902673964937e-01
-1.288322352027270190e-01
-1.107655504574550226e-01
-9.334792894833293664e-02
-7.652050617446448655e-02
-6.019435460658465603e-02
-4.426624704473040850e-02
-2.863073722932193629e-02
-1.319041476964155288e-02
2.134143242188272713e-03
1.739350859235479912e-02
3.259687780677466423e-02
4.769789959778793220e-02
6.258018138674066588e-02
7.704573253903074237e-02
9.081180981243186512e-02
1.035230121212688120e-01
1.147840184798841340e-01
1.242125956348691246e-01
1.315031093762877856e-01
1.364825888821719901e-01
1.391407386451011807e-01
1.396245410690552524e-01
1.382021974014319976e-01
1.352114684482714768e-01
1.310090202242397139e-01
1.259318432601866655e-01
1.202743191894264513e-01
1.142790178458847339e-01
1.081369778699677736e-01
1.019932261129096046e-01
9.595436732803223900e-02
9.009630801399966249e-02
8.447114984660525350e-02
7.911291030155179205e-02
7.404206928716235148e-02
6.926908620298646846e-02
6.479707975083967564e-02
6.062385254281162789e-02
5.674341551178706949e-02
5.314713423583870139e-02
4.982459130777128209e-02
4.676423496708430327e-02
4.395386669765243698e-02
4.138100619859465951e-02
3.903316320918237547e-02
3.689803770005406491e-02
3.496366488637134284e-02
3.321851806661672152e-02
3.165157843208853822e-02
3.025237969210363420e-02
2.901103321274568422e-02
2.791823852810894346e-02
2.696528195777329884e-02
2.614402756008689377e-02
2.544690121261676541e-02
2.486687057382995503e-02
2.439742165392026763e-02
2.403253260657284979e-02
2.376664682973599757e-02
2.359464515306161289e-02
2.351181659565877019e-02
2.351382939517502810e-02
2.359670239565983887e-02
2.375677574667258568e-02
2.399068052320228739e-02
2.429530991786328295e-02
2.466778789698893803e-02
2.510543834727328380e-02
2.560575107350229057e-02
2.616634786369967727e-02
2.678494458341062340e-02
2.745930947983998144e-02
2.818721761375507853e-02
2.896639936599166437e-02
2.979447979526735416e-02
3.066891285386690036e-02
3.158690095046656071e-02
3.254530163077654081e-02
3.354051515456873273e-02
3.456835430838808149e-02
3.562388519775232243e-02
3.670123620790709251e-02
3.779336860554874389e-02
3.889180104602677629e-02
3.998627064133544740e-02
4.106432785025832671e-02
4.211084517822472756e-02
4.310742166877545162e-02
4.403166067345608975e-02
4.485630376612911169e-02
4.554818844636990965e-02
4.606700606829576550e-02
4.636383419766970659e-02
4.637944063336323780e-02
4.604236211682120189e-02
4.526682322856939028e-02
4.395065916412922713e-02
4.197356678356782556e-02
3.919634603304075759e-02
3.546224844297722611e-02
3.060246678895217967e-02
2.444890404184814001e-02
1.685903412283273201e-02
7.758864432795296862e-03
-2.790571272369639366e-03
-1.450384006817188876e-02
-2.677547695107222736e-02
-3.862023012779348952e-02
-4.870989366565409845e-02
-5.554459583229873904e-02
-5.771375257479663401e-02
-5.411078316679703709e-02
-4.395773348931517749e-02
-2.657806379034728661e-02
-9.169858651227572217e-04
3.527078582130983853e-02
8.693576052128890175e-02
1.647779964080073600e-01
2.886710771873127190e-01
4.618218986643443658e-01
5.643399742858661305e-01
5.149196254148742380e-01
4.153252376596303641e-01
3.244404667320600066e-01
2.523953002746778806e-01
1.968741650144373578e-01
1.539338347850171262e-01
1.202365720078014955e-01
9.328984467299608618e-02
7.128626123284652338e-02
5.290988069524407006e-02
3.718184928255546112e-02
2.334891180815579920e-02
1.080462351933417914e-02
-9.670151345894037465e-04
-1.243318927163063192e-02
-2.404416068604825485e-02
-3.625788475593956506e-02
-4.955693494296464774e-02
-6.445309940231710999e-02
-8.146812803938006942e-02
-1.010687061679239329e-01
-1.235229375718757266e-01
-1.486507246169317398e-01
-1.755007935627863336e-01
-2.021350758732369801e-01
-2.258369328896184247e-01
-2.438846973063342471e-01
-2.544963509850903804e-01
-2.572953950555432745e-01
-2.530974801683532061e-01
-2.433554050460661200e-01
-2.296517527319699159e-01
-2.133955728602309754e-01
-1.957023000253617639e-01
-1.773845199144172269e-01
-1.589931616171382234e-01
-1.408732706038480775e-01
-1.232172256506827296e-01
-1.061090891106930417e-01
-8.955908516918198448e-02
-7.352940762074586245e-02
-5.795324242170919737e-02
-4.274892401241571493e-02
-2.783092190739755445e-02
-1.311913299011998463e-02
1.452312795510396146e-03
1.592576245151580347e-02
3.030964603642044911e-02
4.456692309168695104e-02
5.860324464325320643e-02
7.225707147176491096e-02
8.529562677862286002e-02
9.742175202514624655e-02
1.082962768890557426e-01
1.175771350662718623e-01
1.249700422333814009e-01
1.302787225377608493e-01
1.334396438190813827e-01
1.345303218259089606e-01
1.337499554662418821e-01
1.313809354552081254e-01
1.277443656915316084e-01
1.231610513328300072e-01
1.179241091827454152e-01
1.122841337170559228e-01
1.064445235709217397e-01
1.005634930665637722e-01
9.475961584941838822e-02
8.911863208981134210e-02
8.370015171333870796e-02
7.854358305312612865e-02
7.367305463794920906e-02
6.910134039849183396e-02
6.483290941210745340e-02
6.086625584474374129e-02
5.719565881217938963e-02
5.381250204496074857e-02
5.070625831225449021e-02
4.786522019733845806e-02
4.527704032147957663e-02
4.292912757527952983e-02
4.080893524713032766e-02
3.890416725982151491e-02
3.720292241832216101e-02
3.569379185596857629e-02
3.436592055697318404e-02
3.320904160819677237e-02
3.221348973113957737e-02
3.137019848032149283e-02
3.067068518233605212e-02
3.010702596376469212e-02
2.967182297050808062e-02
2.935816551423792164e-02
2.915958414516863981e-02
2.906999937440375714e-02
2.908366500622826603e-02
2.919510625233816964e-02
2.939904859238547455e-02
2.969033917938173131e-02
3.006385890056617952e-02
3.051442333535133583e-02
3.103666456862105502e-02
3.162489878302198604e-02
3.227297117695857726e-02
3.297407174483651948e-02
3.372051939974477636e-02
3.450350555513073680e-02
3.531278829440360340e-02
3.613632753640529105e-02
3.695984788159655671e-02
3.776631697787750930e-02
3.853532098199894534e-02
3.924232148015666111e-02
3.985776461832227224e-02
4.034604128878092888e-02
4.066426676890509684e-02
4.076087583162401468e-02
4.057405019933100349e-02
4.003002795580638817e-02
3.904141624329047350e-02
3.750575240968722496e-02
3.530479659207216847e-02
3.230533578492085500e-02
2.836293631090132730e-02
2.333079074446178097e-02
1.707700422308360000e-02
9.514621673325153461e-03
6.488385448619252149e-04
-9.356847201364218436e-03
-2.010249364811917891e-02
-3.088457503865799092e-02
-4.068084917927774352e-02
-4.822923234951169424e-02
-5.220383978250309198e-02
-5.142027580166796952e-02
-4.495346642054020431e-02
-3.207321932038413592e-02
-1.196346285815827297e-02
1.680163325418897180e-02
5.717645991405847367e-02
1.154070767511264084e-01
2.041499645577911359e-01
3.412620711093065085e-01
4.994069832998297986e-01
5.459580912032795386e-01
4.748553038648715141e-01
3.794721573448913698e-01
2.967745379687482532e-01
2.315634273303071033e-01
1.810603650114984697e-01
1.417055406431417253e-01
1.105622008654871535e-01
8.542778789609428713e-02
6.468244531740309500e-02
4.712192341707426013e-02
3.182448249689380504e-02
1.805281146454050523e-02
5.182257791180325257e-03
-7.353134157937674109e-03
-2.010287161878080570e-02
-3.363363483744642723e-02
-4.855329404288921680e-02
-6.551754369056392302e-02
-8.519909305311812453e-02
-1.081799251050560018e-01
-1.347077160621881486e-01
-1.642794542408628489e-01
-1.951675108366739131e-01
-2.243065590445805224e-01
-2.480375020051695800e-01
-2.635089684110639152e-01
-2.696890666550326165e-01
-2.673048324668521047e-01
-2.580882775735728329e-01
-2.440161592086066422e-01
-2.268548110367795412e-01
-2.079870645879731417e-01
-1.884031011211655948e-01
-1.687604955586539390e-01
-1.494609398222485064e-01
-1.307206504245586043e-01
-1.126271570394210830e-01
-9.518217478632716444e-02
-7.833282374315189700e-02
-6.199403411773862088e-02
-4.606479612967402659e-02
-3.044050565752253606e-02
-1.502329327726027730e-02
2.681273140213453338e-04
1.548785213423311928e-02
3.065061453822410381e-02
4.571794386426404622e-02
6.058376229009047181e-02
7.506236641964895984e-02
8.888390748598674895e-02
1.017040171462474524e-01
1.131333154518656819e-01
1.227874459692602088e-01
1.303493136529499385e-01
1.356266907296135027e-01
1.385863531685815331e-01
1.393537770407191623e-01
1.381810898761180462e-01
1.353971896913012951e-01
1.313566009476115348e-01
1.263991046222664727e-01
1.208246913217651541e-01
1.148825927052102569e-01
1.087703838653569788e-01
1.026388679911693913e-01
9.659942984945434075e-02
9.073176064082308367e-02
8.509086670975672673e-02
7.971294602988907019e-02
7.462008801203709463e-02
6.982392448826221787e-02
6.532841816130255386e-02
6.113197138845486572e-02
5.722901458693330917e-02
5.361120051939761294e-02
5.026830133482215052e-02
4.718888516630587171e-02
4.436082104263683323e-02
4.177165870539318454e-02
3.940891179190872395e-02
3.726026476942297799e-02
3.531372452087914310e-02
3.355772720198819947e-02
3.198121140678902158e-02
3.057366563756603803e-02
2.932515400385811780e-02
2.822632882727126036e-02
2.726843005011054394e-02
2.644327831926583661e-02
2.574325653465418112e-02
2.516129182934971620e-02
2.469083209793632855e-02
2.432581920022788141e-02
2.406066228593232992e-02
2.389020899682367180e-02
2.380971665539374088e-02
2.381482292340198620e-02
2.390151577495182311e-02
2.406610279910155817e-02
2.430518451826626375e-02
2.461561693261319836e-02
2.499448380600260977e-02
2.543906521830919740e-02
2.594680005821160124e-02
2.651524916790394537e-02
2.714205583936269220e-02
2.782490224682868454e-02
2.856145814135042926e-02
2.934932561179609545e-02
3.018597528150859105e-02
3.106867189878216237e-02
3.199438587635369813e-02
3.295969103771420605e-02
3.396064255812938915e-02
3.499263018772533901e-02
3.605020302393049936e-02
3.712685924921355768e-02
3.821479142695648201e-02
3.930458100612836680e-02
4.038482093281512558e-02
4.144167000394716194e-02
4.245830735499203645e-02
4.341427345521467474e-02
4.428467363242500482e-02
4.503922396565669672e-02
4.564110896756237018e-02
4.604562300161502142e-02
4.619858916871723287e-02
4.603454833055703466e-02
4.547475087224179396e-02
4.442506915062988115e-02
4.277406524578526714e-02
4.039169244829134836e-02
3.712953531524205292e-02
3.282409381113667035e-02
2.730574452773328401e-02
2.041731755839157683e-02
1.204780684062936591e-02
2.187304586851332444e-03
-8.993901746337545910e-03
-2.104981644292285708e-02
-3.317633601637409724e-02
-4.419632316118772553e-02
-5.266728022825141464e-02
-5.711094137550460498e-02
-5.626698144844947957e-02
-4.921822520976186499e-02
-3.528241676378361669e-02
-1.365242320161350748e-02
1.723678184758324627e-02
6.081948548035170932e-02
1.246065400278054680e-01
2.241133154208176659e-01
3.788215287236399997e-01
5.366245446008280906e-01
5.503882592721061062e-01
4.619762873880889908e-01
3.642329386351200737e-01
2.834801144519175642e-01
2.208073946554259537e-01
1.725084659903080297e-01
1.348864545858862729e-01
1.050705533478199782e-01
8.096173787882660067e-02
6.103788653085369387e-02
4.417922134398472034e-02
2.953809055115296997e-02
1.644642531080139219e-02
4.350029078009187700e-03
-7.239233992236131232e-03
-1.877954927920311851e-02
-3.072715990132994512e-02
-4.355720820975202828e-02
-5.777478479142707929e-02
-7.390786983082323069e-02
-9.246471133917667784e-02
-1.138262439802922854e-01
-1.380390934938343361e-01
-1.645062655314374067e-01
-1.916875701557845812e-01
-2.170945724698683521e-01
-2.378558556204700136e-01
-2.516887917638063188e-01
-2.576328976749769906e-01
-2.560902450982253664e-01
-2.483436037786419248e-01
-2.359883653287464522e-01
-2.205389259093224752e-01
-2.032423400714030437e-01
-1.850339856545175909e-01
-1.665652852778340964e-01
-1.482575043301693762e-01
-1.303578893209909328e-01
-1.129883429616831275e-01
-9.618406139247984155e-02
-7.992276251354418770e-02
-6.414627475455636496e-02
-4.877647321029739136e-02
-3.372737422399289808e-02
-1.891497539105983783e-02
-4.266160533055510067e-03
1.027224814658802068e-02
2.472351040135073105e-02
3.906974490418600732e-02
5.323993082938857646e-02
6.709881059051905905e-02
8.043997971181832130e-02
9.298792900577665388e-02
1.044141845862371770e-01
1.143704790472498400e-01
1.225364684588055447e-01
1.286722381518778935e-01
1.326608778641997777e-01
1.345276057229679856e-01
1.344301739638015247e-01
1.326258729531224756e-01
1.294274539518844580e-01
1.251607874038659085e-01
1.201326191355881201e-01
1.146111440872504827e-01
1.088179379576957179e-01
1.029279192293288264e-01
9.707393974379763257e-02
9.135336376210025089e-02
8.583495009325579905e-02
8.056513183886593321e-02
7.557333212043412796e-02
7.087625486707412048e-02
6.648124492455761980e-02
6.238886820515905651e-02
5.859486719007574868e-02
5.509163109122653529e-02
5.186929430259210050e-02
4.891655400783619101e-02
4.622127574514754700e-02
4.377093948035849780e-02
4.155296555654018620e-02
3.955494993388501690e-02
3.776483065968722769e-02
3.617100260225292185e-02
3.476239230544767023e-02
3.352850288294231124e-02
3.245943584581292840e-02
3.154589547621619583e-02
3.077917880069606232e-02
3.015115627452555347e-02
2.965424317088738784e-02
2.928136469620567020e-02
2.902591515222720936e-02
2.888171108795644509e-02
2.884293978666860672e-02
2.890410320796918744e-02
2.905995488795971859e-02
2.930542931584576710e-02
2.963556409228769797e-02
3.004541328724226468e-02
3.052994594658612129e-02
3.108392993443596236e-02
3.170180020588078684e-02
3.237750168332832051e-02
3.310430625224226181e-02
3.387459542156943948e-02
3.467960296222256933e-02
3.550910749339655087e-02
3.635106512410251484e-02
3.719117092584052486e-02
3.801233295187723960e-02
3.879404144249951752e-02
3.951161812235200188e-02
4.013532613305551694e-02
4.062931432399269349e-02
4.095038352709784446e-02
4.104657323580959694e-02
4.085557026825101939e-02
4.030300406414318026e-02
3.930074281660263236e-02
3.774545269567933237e-02
3.551788349656615634e-02
3.248372779082359801e-02
2.849745075815486930e-02
2.341134795832263554e-02
1.709321726944190711e-02
9.456976217044756050e-03
5.107892759314211495e-04
-9.575703361297309424e-03
-2.039240197617631783e-02
-3.122179408653536284e-02
-4.102603540087437772e-02
-4.853008357576351489e-02
-5.240213162336901376e-02
-5.146011529652455563e-02
-4.478563579250041671e-02
-3.165147119010071342e-02
-1.123050729522981003e-02
1.794235297650652664e-02
5.891621017020895468e-02
1.181464678819698216e-01
2.086805899629952665e-01
3.482962521048607041e-01
5.052630908522613984e-01
5.452997263169627740e-01
4.712292816166298026e-01
3.757957929583199963e-01
2.937407626688702811e-01
2.291786358563025761e-01
1.791956963695615357e-01
1.402328216736903888e-01
1.093799830309452464e-01
8.446075392672508508e-02
6.387571234326865077e-02
4.643559732378783195e-02
3.122950720707133934e-02
1.752805980591933682e-02
4.712606950949889406e-03
-7.777966758987557572e-03
-2.048887870354142854e-02
-3.398252333014490506e-02
-4.886195560405764277e-02
-6.577700999763369527e-02
-8.539322433905086052e-02
-1.082845592438447385e-01
-1.346923258194424322e-01
-1.641145964299675908e-01
-1.948402880028757833e-01
-2.238378587593605196e-01
-2.474848362385071721e-01
-2.629465623649815398e-01
-2.691804057412254814e-01
-2.668877801442818276e-01
-2.577759001308186915e-01
-2.438048317262934139e-01
-2.267324543348431809e-01
-2.079388845110122785e-01
-1.884148314445432681e-01
-1.688199134375639732e-01
-1.495583646051855953e-01
-1.308489257955778584e-01
-1.127814063129929240e-01
-9.535948158934497154e-02
-7.853190981484044209e-02
-6.221496485527273218e-02
-4.630870663488791811e-02
-3.070933672035825596e-02
-1.531951178536468394e-02
-5.813382323094536119e-05
1.512913409097334932e-02
3.025782648935335800e-02
4.529098306482984976e-02
6.012487118262649366e-02
7.457697194478031533e-02
8.838124149899027893e-02
1.011971918504979834e-01
1.126385380959984694e-01
1.223222198436586250e-01
1.299299498944632425e-01
1.352657911727968287e-01
1.382910740685600326e-01
1.391253854454737315e-01
1.380158021230133980e-01
1.352877609575562634e-01
1.312940993755374319e-01
1.263743886924467152e-01
1.208293971348015500e-01
1.149096395538405230e-01
1.088141138679692282e-01
1.026949635379650616e-01
9.666472099424688880e-02
9.080399974598110657e-02
8.516851437805521285e-02
7.979499021539213088e-02
7.470589806141506029e-02
6.991313998591920653e-02
6.542086664214172287e-02
6.122760905423704769e-02
5.732788437167684464e-02
5.371340293554347639e-02
5.037397467403986057e-02
4.729819224000662153e-02
4.447394040818647420e-02
4.188877927283862768e-02
3.953022943847943338e-02
3.738598050147759477e-02
3.544404357939460321e-02
3.369285880295265490e-02
3.212136881367642222e-02
3.071906656980682299e-02
2.947602100742652276e-02
2.838288973899694145e-02
2.743091850967754874e-02
2.661193405162354253e-02
2.591832552590911734e-02
2.534302653692087348e-02
2.487949118315740255e-02
2.452166730571094660e-02
2.426396937558419897e-02
2.410124946597244286e-02
2.402876807249336444e-02
2.404216431853239966e-02
2.413742539744285001e-02
2.431085526709191730e-02
2.455904724240377465e-02
2.487884550288229843e-02
2.526731654676446157e-02
2.572171616779277484e-02
2.623945042832119545e-02
2.681803697965605415e-02
2.745506314978754525e-02
2.814813939446886293e-02
2.889484474459122834e-02
2.969266739935204347e-02
3.053893563270425326e-02
3.143073728970070813e-02
3.236482409344221267e-02
3.333749983692149699e-02
3.434448751184399767e-02
3.538076932637514854e-02
3.644039489894179001e-02
3.751625240376633974e-02
3.859978641549841744e-02
3.968066353941866048e-02
4.074636560285884584e-02
4.178169775805166269e-02
4.276818963969581527e-02
4.368337845150049165e-02
4.449994245999399495e-02
4.518465585431721138e-02
4.569715802550504413e-02
4.598849384149064634e-02
4.599942531837516307e-02
4.565852919787115327e-02
4.488014239917821613e-02
4.356232320815773412e-02
4.158516239803152631e-02
3.881010021004655669e-02
3.508139349916642585e-02
3.023173746922976426e-02
2.409519826452956662e-02
1.653223105443694246e-02
7.472637575460433501e-03
-3.018239630167979248e-03
-1.465102109402921515e-02
-2.681838516836826738e-02
-3.853745670851064370e-02
-4.848806374877820402e-02
-5.518297322433840524e-02
-5.722470441112250533e-02
-5.351504467742310839e-02
-4.327636633721787529e-02
-2.582421145498634690e-02
-8.865181796009063975e-05
3.619837117950513994e-02
8.802113081781257065e-02
1.661193528997184643e-01
2.902799925853559726e-01
4.628113620175989262e-01
5.633901116815680510e-01
5.133489565471731630e-01
4.140345576436641473e-01
3.234931986611723764e-01
2.517026539397625440e-01
1.963564096579301921e-01
1.535358066887660966e-01
1.199212846698497065e-01
9.303155129008752744e-02
7.106556122795745778e-02
5.271048446394642484e-02
3.698836536871633052e-02
2.314517797658960374e-02
1.057225901579927907e-02
-1.250052991008630821e-03
-1.279418872169648530e-02
-2.451745277694759861e-02
-3.688680775522295424e-02
-5.039566227496576623e-02
-6.556747400975068696e-02
-8.293354190959216499e-02
-1.029612311288577303e-01
-1.258979096363989081e-01
-1.515039674716056606e-01
-1.787188012577917984e-01
-2.054655270032126613e-01
-2.289260466492480939e-01
-2.463875969735404847e-01
-2.561910679221713338e-01
-2.581245905589915624e-01
-2.531347581430339333e-01
-2.427432856064296041e-01
-2.285495168409611699e-01
-2.119485685111280604e-01
-1.940290421145533795e-01
-1.755744987787685174e-01
-1.571097689105156459e-01
-1.389584939328361579e-01
-1.212964352532914791e-01
-1.041952241581988320e-01
-8.765605724842780166e-02
-7.163477526980330246e-02
-5.606030185266608346e-02
-4.084838771492686066e-02
-2.591236954233194778e-02
-1.117239386659708150e-02
3.435685106646300252e-03
1.795079077039962723e-02
3.237593139391827662e-02
4.666637157928717888e-02
6.071774059499834841e-02
7.435659146441134237e-02
8.733759630563023291e-02
9.935260935473799737e-02
1.100559920387202684e-01
1.191066139143123759e-01
1.262200639154490711e-01
1.312180267125959976e-01
1.340596195035826388e-01
1.348449435342788383e-01
1.337914226746554913e-01
1.311928652690706465e-01
1.273747281703446199e-01
1.226564418527319178e-01
1.173260422938619540e-01
1.116272538855573732e-01
1.057562558678110803e-01
9.986458104886374032e-02
9.406508732999907529e-02
8.843888084434015084e-02
8.304195959965006424e-02
7.791100117770891065e-02
7.306812003877324879e-02
6.852463731521750423e-02
6.428399744852106301e-02
6.034398995443143732e-02
5.669842489577878175e-02
5.333838828028637791e-02
5.025317758196953810e-02
4.743099847389781187e-02
4.485947727510054828e-02
4.252603816991729069e-02
4.041817887736137704e-02
3.852366560610915452e-02
3.683067111994782483e-02
3.532786717089986261e-02
3.400448311237674881e-02
3.285033865329176073e-02
3.185585558311927745e-02
3.101205580190823097e-02
3.031054623941441956e-02
2.974349750637077933e-02
2.930361061651298032e-02
2.898408020231452165e-02
2.877855426395685770e-02
2.868108491540818233e-02
2.868607762781629281e-02
2.878823334765135550e-02
2.898248609581539903e-02
2.926393331153634772e-02
2.962775570619425453e-02
3.006913107147765607e-02
3.058313240987241277e-02
3.116460893861011661e-02
3.180805570024657775e-02
3.250745445535031114e-02
3.325608823123354235e-02
3.404631974591618149e-02
3.486933232451727011e-02
3.571481736546366914e-02
3.657060086833207463e-02
3.742219821193398105e-02
3.825227927924291366e-02
3.904002941786353931e-02
3.976038158692132840e-02
4.038311313767081051e-02
4.087177325012328333e-02
4.118242921119215361e-02
4.126223040825044430e-02
4.104779769163369174e-02
4.046349941507281639e-02
3.941974501223023675e-02
3.781156046545493254e-02
3.551795447841136349e-02
3.240293199800392543e-02
2.831965864407157835e-02
2.312008729228660908e-02
1.667357093731843681e-02
8.898927105814413707e-03
-1.855729798416541620e-04
-1.039306890325292221e-02
-2.128837377454368199e-02
-3.212320363679717350e-02
-4.182991130837612065e-02
-4.911449028832333419e-02
-5.264465810858763584e-02
-5.125491431365577361e-02
-4.404789134675429763e-02
-3.030265723949447654e-02
-9.161994759172873565e-03
2.093493950035733853e-02
6.325675794784396677e-02
1.247262244018439437e-01
2.191952848139457344e-01
3.637614053128613301e-01
5.162672057663690861e-01
5.420762971510729722e-01
4.626307894490458983e-01
3.675912899002325429e-01
2.871098484532474404e-01
2.240167463105968426e-01
1.751809793722567399e-01
1.370718515220774869e-01
1.068467059206332781e-01
8.238855147738896600e-02
6.214230904781958137e-02
4.494995286550534930e-02
2.992200487659623862e-02
1.634346755884366620e-02
3.605054607173655001e-03
-8.848601693872054641e-03
-2.155955226989071660e-02
-3.508869158022191043e-02
-5.003810207726581971e-02
-6.705529730187290149e-02
-8.679874707014717528e-02
-1.098248144069675081e-01
-1.363390824415020575e-01
-1.657816059768784933e-01
-1.963736047350564673e-01
-2.250457214101490300e-01
-2.482098157899016999e-01
-2.631304241993012716e-01
-2.688703434300906414e-01
-2.661938215544790154e-01
-2.568225376708858088e-01
-2.427013112572455333e-01
-2.255620025512231619e-01
-2.067589719700383410e-01
-1.872618433622776357e-01
-1.677146242133519261e-01
-1.485107330198818798e-01
-1.298618162604635862e-01
-1.118532945498125208e-01
-9.448634710309325446e-02
-7.770853039298797338e-02
-6.143579410636634125e-02
-4.556848183821976539e-02
-3.000352313874597027e-02
-1.464465851799175850e-02
5.877953250106168412e-04
1.574643477939326880e-02
3.084472504012577415e-02
4.584334355706054520e-02
6.063602704319463049e-02
7.503782860727051252e-02
8.878082818973397072e-02
1.015238030149214071e-01
1.128814470630567779e-01
1.224737036030897480e-01
1.299870581791388036e-01
1.352312753224863828e-01
1.381731273771988899e-01
1.389363123827543900e-01
1.377701205654876526e-01
1.350003393963171150e-01
1.309787513383130486e-01
1.260430651429386151e-01
1.204919009882951392e-01
1.145736926808474387e-01
1.084856085370186213e-01
1.023782762655546380e-01
9.636301797582524920e-02
9.051950184601877114e-02
8.490271367639354305e-02
7.954882045055812478e-02
7.447986751208705847e-02
6.970743434561549323e-02
6.523542872465329379e-02
6.106220130007246338e-02
5.718213792843213766e-02
5.358685625766002047e-02
5.026610477790308118e-02
4.720843858712533980e-02
4.440172463241151557e-02
4.183352011116425045e-02
3.949135482314990175e-02
3.736293684816014565e-02
3.543630250881887878e-02
3.369992229555075769e-02
3.214277299040246838e-02
3.075438411082677750e-02
2.952486266738289095e-02
2.844490476753171182e-02
2.750579567705352738e-02
2.669940014430650238e-02
2.601814476324643827e-02
2.545499995683760119e-02
2.500345400739645285e-02
2.465748781198761827e-02
2.441154632753983478e-02
2.426050962612323267e-02
2.419966354608572845e-02
2.422466908088688128e-02
2.433153144870855988e-02
2.451656850772985022e-02
2.477638257096649935e-02
2.510781998699479142e-02
2.550794396553702353e-02
2.597399802402267088e-02
2.650336642393752440e-02
2.709353357247770711e-02
2.774203983051538869e-02
2.844643192720779090e-02
2.920420521267170014e-02
3.001274027588456475e-02
3.086922866901204224e-02
3.177058623334313991e-02
3.271334996619687518e-02
3.369355734894845938e-02
3.470660228338372927e-02
3.574706169985177040e-02
3.680848760473033610e-02
3.788315895824673207e-02
3.896177396188637426e-02
4.003308802206185374e-02
4.108347157900148205e-02
4.209637581737082912e-02
4.305168318689319568e-02
4.392493093086062561e-02
4.468637284434749668e-02
4.529985510136542298e-02
4.572149311060735161e-02
4.589811705875727205e-02
4.576549167281196429e-02
4.524634341980007801e-02
4.424829607735704384e-02
4.266194216055026883e-02
4.035950852343203610e-02
3.719494618545819004e-02
3.300693094855546017e-02
2.762720925406107406e-02
2.089811345872411019e-02
1.270459097636749551e-02
3.026672761183756000e-03
-7.984142986262370012e-03
-1.991109330010241638e-02
-3.198792393748981638e-02
-4.307597294910076036e-02
-5.175862632448162415e-02
-5.655958572721358352e-02
-5.619702258582700422e-02
-4.972416987039033481e-02
-3.644484279102165603e-02
-1.557898913626051644e-02
1.433790917047267008e-02
5.650053652169033380e-02
1.178915764997748861e-01
2.130669900024225460e-01
3.622678023125778801e-01
5.257863317156622474e-01
5.546304218191133728e-01
4.709491680620579990e-01
3.724708801729090801e-01
2.900429833596495643e-01
2.258820671455544771e-01
1.764408935022603042e-01
1.379749827182721322e-01
1.075397856309098510e-01
8.297459822272106045e-02
6.271194234413299262e-02
4.559999694097678635e-02
3.076868982566236671e-02
1.753418628702183707e-02
5.331033695549228235e-03
-6.337172694665542394e-03
-1.793501153713630142e-02
-2.992413437967021694e-02
-4.278492875392796158e-02
-5.702846420089500989e-02
-7.319048881337186785e-02
-9.178991506906597486e-02
-1.132220261929932220e-01
-1.375503473113331709e-01
-1.641919049437456923e-01
-1.916066588367758838e-01
-2.172816513299529462e-01
-2.382991705706082874e-01
-2.523302549170834408e-01
-2.583906202068951830e-01
-2.568854006464429407e-01
-2.491163483109010979e-01
-2.367012094872502082e-01
-2.211730409217866622e-01
-2.037918641569222700e-01
-1.855009026012773288e-01
-1.669556505964389093e-01
-1.485789606338915325e-01
-1.306181614835031646e-01
-1.131943999390196826e-01
-9.634170149815439455e-02
-8.003645426288232001e-02
-6.421914655516991477e-02
-4.881038897855678738e-02
-3.372306326193555415e-02
-1.887220763260948064e-02
-4.183973941094103373e-03
1.039524830873132279e-02
2.488875380670972984e-02
3.927817549333373348e-02
5.349135741621733470e-02
6.739116592690348739e-02
8.076860088974344154e-02
9.334505891641534103e-02
1.047889562548124376e-01
1.147496114543733459e-01
1.229057049582176903e-01
1.290182635045126758e-01
1.329731763267604783e-01
1.347996931705320312e-01
1.346598819495092303e-01
1.328147439999978474e-01
1.295795963150639385e-01
1.252816122400977339e-01
1.202277722131973314e-01
1.146857787102538162e-01
1.088763278747641589e-01
1.029733367924287601e-01
9.710870446465051653e-02
9.137897917384174562e-02
8.585227070140682981e-02
8.057452557052222075e-02
7.557482091299703997e-02
7.086962765263182806e-02
6.646614330711467233e-02
6.236484868324990161e-02
5.856144404913555396e-02
5.504830476399726752e-02
5.181556873939404534e-02
4.885194642968014589e-02
4.614532101155184585e-02
4.368319107961426973e-02
4.145299440876284991e-02
3.944234212121398853e-02
3.763918468983164928e-02
3.603192676057757893e-02
3.460950247688161785e-02
3.336142111442797625e-02
3.227778988919661335e-02
3.134931945157302946e-02
3.056731546954642720e-02
2.992366065061808494e-02
2.941078827559536618e-02
2.902164956627163728e-02
2.874967523192301436e-02
2.858873178123299413e-02
2.853307370027965278e-02
2.857729188561669229e-02
2.871625530778257329e-02
2.894504687517266209e-02
2.925889317774560405e-02
2.965308696104316730e-02
3.012289553283060278e-02
3.066345927302188343e-02
3.126967436095297315e-02
3.193605549628728002e-02
3.265657579896951573e-02
3.342447750195121081e-02
3.423204790768450551e-02
3.507035261851661895e-02
3.592891689421991858e-02
3.679534614967867184e-02
3.765486627915803214e-02
3.848977922373590654e-02
3.927880630343548451e-02
3.999631131610520418e-02
4.061136659557478684e-02
4.108665974370993845e-02
4.137721652108443393e-02
4.142893214225918525e-02
4.117694065720277352e-02
4.054387202731514483e-02
3.943815164664701139e-02
3.775262199273236863e-02
3.536403954390107685e-02
3.213435354334964744e-02
2.791536688152217172e-02
2.255925212461244722e-02
1.593855505675680073e-02
7.980331790496474065e-03
-1.281271136185639647e-03
-1.163353225601323343e-02
-2.260492887467087028e-02
-3.340449247722358794e-02
-4.292582149117227935e-02
-4.985393658812553586e-02
-5.286238821142444366e-02
-5.081351048443581708e-02
-4.284002506604697724e-02
-2.822601380824060757e-02
-6.064314943566792744e-03
2.535260421935107283e-02
6.962271986916918065e-02
1.343596104409348901e-01
2.345137123509844768e-01
3.853671334678515636e-01
5.290051229569299185e-01
5.358097950941898002e-01
4.504776841472203919e-01
3.564439660008819066e-01
2.781978088991168829e-01
2.171011145710648460e-01
1.698044260083261814e-01
1.328352237717217443e-01
1.034463523576203969e-01
7.960132575626926998e-02
5.980404128946123499e-02
4.293748268093196957e-02
2.813986191586652710e-02
1.471428323432322216e-02
2.062608870400495231e-03
-1.036453684161282168e-02
-2.310707939072028511e-02
-3.672647721318859221e-02
-5.182644850240698126e-02
-6.905422571551010635e-02
-8.906024089605346639e-02
-1.123746882101578082e-01
-1.391441905474830043e-01
-1.687072728151393086e-01
-1.991603025537786731e-01
-2.273543616059816863e-01
-2.497448598862436753e-01
-2.637575916215652572e-01
-2.686374487308778036e-01
-2.652655331547080775e-01
-2.553996769689841351e-01
-2.409679200896171214e-01
-2.236634730554861727e-01
-2.047994788774540054e-01
-1.853102855033513519e-01
-1.658128059529690723e-01
-1.466809940958321290e-01
-1.281131898403282954e-01
-1.101861270466208131e-01
-9.289562347255818364e-02
-7.618621639461746475e-02
-5.997248235371685499e-02
-4.415457456442034578e-02
-2.863015266433954070e-02
-1.330447748156406845e-02
1.899831671283862961e-03
1.703221878576175949e-02
3.210205622259165725e-02
4.706495789773016553e-02
6.180876758429339202e-02
7.614229041856575286e-02
8.979193799511243912e-02
1.024127892184049232e-01
1.136193522091809155e-01
1.230360212844534562e-01
1.303583605923832878e-01
1.354083602559246202e-01
1.381656044635005687e-01
1.387645404575869601e-01
1.374614051275652171e-01
1.345847268971167021e-01
1.304855151956461068e-01
1.254984036321076524e-01
1.199178362695106914e-01
1.139878722612777673e-01
1.079016487282680320e-01
1.018063526779759975e-01
9.581051053017969332e-02
8.999159116999753960e-02
8.440288680131292909e-02
7.907927932096142642e-02
7.404184874468942856e-02
6.930145592419816036e-02
6.486147894507771072e-02
6.071988297252751271e-02
5.687077853875285860e-02
5.330559246647767480e-02
5.001394680870739629e-02
4.698432033284500459e-02
4.420454118427923768e-02
4.166215720474773787e-02
3.934471042523442902e-02
3.723993764561448622e-02
3.533591607476935931e-02
3.362116573845197465e-02
3.208471868254055698e-02
3.071616367208608242e-02
2.950566897395636573e-02
2.844399293588045427e-02
2.752248217743182707e-02
2.673306252186938986e-02
2.606821962374540266e-02
2.552098035673836668e-02
2.508488746257592217e-02
2.475397280513695619e-02
2.452272911728037297e-02
2.438608057671173834e-02
2.433935293493096758e-02
2.437824290655446480e-02
2.449878615589649172e-02
2.469732601646238562e-02
2.497048423678045748e-02
2.531511922598584860e-02
2.572829904172699300e-02
2.620726247310211504e-02
2.674937858103662233e-02
2.735210427740640549e-02
2.801293767433211263e-02
2.872936564390247971e-02
2.949880278511377366e-02
3.031852402169728580e-02
3.118558509135442580e-02
3.209672971422805610e-02
3.304827892649489507e-02
3.403600132855032212e-02
3.505495773255986464e-02
3.609931420954053810e-02
3.716211942843489213e-02
3.823502955110041901e-02
3.930798543596807082e-02
4.036881704554989153e-02
4.140276582533514854e-02
4.239190531811844881e-02
4.331444622568709352e-02
4.414389503234732171e-02
4.484804381274261342e-02
4.538777371736998217e-02
4.571563914914062582e-02
4.577422407523738801e-02
4.549428250176501543e-02
4.479271720933641898e-02
4.357054647567863009e-02
4.171115185858083330e-02
3.907942453646530423e-02
3.552282080437930978e-02
3.087621477847315651e-02
2.497343541244437595e-02
1.766998089191846102e-02
8.882627060265761709e-03
-1.348589881374526178e-03
-1.277547821332895156e-02
-2.484750969039574778e-02
-3.664562369203988590e-02
-4.690182194007108674e-02
-5.414755552485917001e-02
-5.696132526915342886e-02
-5.419363163664220329e-02
-4.502389242037981715e-02
-2.877423779750809540e-02
-4.474451751771153958e-03
2.988044543447039222e-02
7.868797156014419036e-02
1.514651226548724972e-01
2.666196901009503240e-01
4.348090944656796686e-01
5.581257798335759190e-01
5.268130593204598533e-01
4.296874234190206643e-01
3.365707608753286673e-01
2.618883236644732881e-01
2.042114452658009838e-01
1.596501658615001318e-01
1.247596118859626013e-01
9.693495583233963098e-02
7.428087982089007224e-02
5.541777545434833918e-02
3.932167321449209912e-02
2.520725326018152801e-02
1.244484092921702839e-02
5.009862564567188481e-04
-1.110539577575109932e-02
-2.283663723571833365e-02
-3.516238838428845798e-02
-4.857789044973447740e-02
-6.360983006992940170e-02
-8.079796940207720213e-02
-1.006296720548562340e-01
-1.233925236064973840e-01
-1.489144815770196140e-01
-1.762237979630997542e-01
-2.033194609824235943e-01
-2.273905600811664540e-01
-2.456345087997338361e-01
-2.562459021658090030e-01
-2.588849053348631357e-01
-2.544316061539909635e-01
-2.443989610550500458e-01
-2.304110608769000534e-01
-2.138994378753635572e-01
-1.959881081343100295e-01
-1.774898227557725749e-01
-1.589513448297875942e-01
-1.407117852255861390e-01
-1.229572564084024655e-01
-1.057659390528346843e-01
-8.914286291541648199e-02
-7.304580301626310834e-02
-5.740429589079103223e-02
-4.213376610988250892e-02
-2.714651654146762669e-02
-1.236106978273428421e-02
2.288898254987105363e-03
1.684505546850208549e-02
3.131373890923255798e-02
4.565409173574039303e-02
5.976600457306170677e-02
7.348028521443490668e-02
8.655517910478417731e-02
9.868450501430549304e-02
1.095220071976374665e-01
1.187226972989070817e-01
1.259952074855219539e-01
1.311522005151865566e-01
1.341434680799621915e-01
1.350612941257452182e-01
1.341180131042790935e-01
1.316053922902827578e-01
1.278494475454232393e-01
1.231719233484194487e-01
1.178640529916746560e-01
1.121729624402177106e-01
1.062980120143755536e-01
1.003934884626081908e-01
9.457451941097022585e-02
8.892402253019790481e-02
8.349941195972387931e-02
7.833845727337210296e-02
7.346410721908157304e-02
6.888831570442836838e-02
6.461500331663264096e-02
6.064231390212829892e-02
5.696431716806005241e-02
5.357228535899050820e-02
5.045564441382463516e-02
4.760268193053728003e-02
4.500107218618303040e-02
4.263825911002804003e-02
4.050173808531748465e-02
3.857925736396283778e-02
3.685896043175603681e-02
3.532947965533461687e-02
3.398000024079597670e-02
3.280029417299159394e-02
3.178073685458168707e-02
3.091230380183683513e-02
3.018656023623580986e-02
2.959563949075289663e-02
2.913221312375605110e-02
2.878945760066013021e-02
2.856101387032184899e-02
2.844094296532744676e-02
2.842367848263379834e-02
2.850397314225115025e-02
2.867683934707729657e-02
2.893748651858323723e-02
2.928125026149427934e-02
2.970350699448059961e-02
3.019959023964747732e-02
3.076468238281190870e-02
3.139369733591517581e-02
3.208113825299031829e-02
3.282093448056065677e-02
3.360624906147721691e-02
3.442924783721141441e-02
3.528082583121999738e-02
3.615028139393680617e-02
3.702492560683503381e-02
3.788960762184405417e-02
3.872615812898169002e-02
3.951271621760782393e-02
4.022292381291289742e-02
4.082497372663181773e-02
4.128048497529395594e-02
4.154319393616155709e-02
4.155745794815180610e-02
4.125659049278466994e-02
4.056111099113158397e-02
3.937705745734705609e-02
3.759468315545251571e-02
3.508812012998355212e-02
3.171704457180368752e-02
2.733198083820242291e-02
2.178599213523267977e-02
1.495647918597975412e-02
6.781893180373817220e-03
-2.682546636869342915e-03
-1.319075550654889850e-02
-2.422576043357586861e-02
-3.494519173698316938e-02
-4.419885186066281613e-02
-5.065218072540711436e-02
-5.299209765070854450e-02
-5.011815512708990561e-02
-4.119802725451206932e-02
-2.551499877085689275e-02
-2.088956531473400331e-03
3.098675819856348823e-02
7.775004066954306625e-02
1.467230409154619830e-01
2.541298566653752422e-01
4.114500824525970102e-01
5.406215922958440556e-01
5.261904764588952732e-01
4.357345303213412957e-01
3.433991465739562043e-01
2.678638649240786540e-01
2.090964718781369858e-01
1.635760449786168858e-01
1.279178535769115999e-01
9.948968258632434614e-02
7.634840512590121420e-02
5.706535034991238459e-02
4.056997371588022538e-02
2.603155104888062177e-02
1.277313745079775714e-02
2.084143635375512726e-04
-1.220630027763832531e-02
-2.500991432123438052e-02
-3.876615623494556601e-02
-5.408222909312020849e-02
-7.160603242750057662e-02
-9.197780131174292106e-02
-1.156922815308345787e-01
-1.428155261989735303e-01
-1.725483947798271411e-01
-2.028217676472169884e-01
-2.303877909487969111e-01
-2.517681366142204280e-01
-2.646030465866427428e-01
-2.683709719515849912e-01
-2.640995148286710559e-01
-2.535906549812393940e-01
-2.387506150738832877e-01
-2.212236983557429038e-01
-2.022709622594611456e-01
-1.827820351758173145e-01
-1.633393097714136155e-01
-1.442917686762821283e-01
-1.258205324611952614e-01
-1.079909676482788683e-01
-9.079176360535137769e-02
-7.416334001058158543e-02
-5.801829422653530244e-02
-4.225636902703106684e-02
-2.677604905007496122e-02
-1.148452470689292730e-02
3.692536626440748836e-03
1.880029163801174782e-02
3.384243603808933382e-02
4.876744326409486463e-02
6.345474809515185000e-02
7.770414708627171319e-02
9.123378644277152505e-02
1.036932291714427329e-01
1.146964610819838498e-01
1.238739659141276372e-01
1.309339983037892119e-01
1.357157345626499589e-01
1.382168120720969617e-01
1.385868639727099172e-01
1.370920031955037977e-01
1.340647568096662579e-01
1.298552167030387339e-01
1.247938640876966321e-01
1.191694251695231549e-01
1.132199346468071299e-01
1.071329600353171790e-01
1.010509259772148782e-01
9.507848696869941607e-02
8.929006778878673112e-02
8.373662174737384056e-02
7.845126013521427910e-02
7.345373925601397791e-02
6.875393972805490805e-02
6.435452129816797429e-02
6.025292983508952205e-02
5.644290709257071548e-02
5.291562715730535604e-02
4.966054611428434573e-02
4.666604192506262211e-02
4.391989388956371587e-02
4.140963854119746046e-02
3.912283476324587145e-02
3.704725734768464507e-02
3.517103694483818960e-02
3.348275827603591076e-02
3.197152434843708591e-02
3.062699884858262681e-02
2.943942926642460073e-02
2.839965356700712221e-02
2.749909646825010601e-02
2.672976030475316886e-02
2.608420542684199497e-02
2.555553015031465300e-02
2.513734501206164526e-02
2.482374581034800520e-02
2.460928511546757458e-02
2.448894263601999327e-02
2.445809444728474363e-02
2.451248172388874325e-02
2.464818116485417709e-02
2.486156921037859999e-02
2.514928950805647712e-02
2.550822291377234652e-02
2.593544772168820262e-02
2.642820160685686176e-02
2.698384190902764629e-02
2.759980202255811477e-02
2.827353949089899190e-02
2.900248148811926038e-02
2.978396289819814843e-02
3.061515232835008288e-02
3.149296738263671763e-02
3.241397627831935080e-02
3.337427939464560761e-02
3.436936992947593056e-02
3.539396700135481744e-02
3.644181476324347135e-02
3.750544141471327114e-02
3.857586802105829327e-02
3.964225673823791596e-02
4.069148576099835407e-02
4.170763504590101894e-02
4.267136503932901503e-02
4.355916947021667984e-02
4.434246784926442614e-02
4.498653365342038246e-02
4.544921438362157368e-02
4.567942885569582778e-02
4.561544256944313758e-02
4.518294024969625455e-02
4.429298264980546795e-02
4.284004542949855499e-02
4.070053285616610089e-02
3.773252757032390103e-02
3.377806044867755209e-02
2.867015015371748854e-02
2.224806081026138582e-02
1.438583820769005067e-02
5.039972011350396519e-03
-5.679445446435643641e-03
-1.741775958489105366e-02
-2.948693812560299402e-02
-4.082569803491634813e-02
-5.006647072770140788e-02
-5.573053633789371020e-02
-5.648385876329315575e-02
-5.131106932470149568e-02
-3.948184190280148304e-02
-2.026894959459211651e-02
7.589193245333015342e-03
4.680999530905667616e-02
1.033391220132358901e-01
1.897889988570276576e-01
3.268346913637685813e-01
4.981258355222308865e-01
5.614606140083522323e-01
4.911980507995201695e-01
3.916623625735574654e-01
3.054040078512060830e-01
2.377456702855113846e-01
1.856100446820581062e-01
1.451561880142558381e-01
1.132668246119616223e-01
8.763550064611211332e-02
6.658834112513103975e-02
4.889958961066661475e-02
3.364890367730044574e-02
2.011885404124080790e-02
7.722153594331447601e-03
-4.050991524657328313e-03
-1.567235839949800841e-02
-2.760629843668115091e-02
-4.033306456984215443e-02
-5.436308975105969693e-02
-7.023508771866229794e-02
-8.848197718892522601e-02
-1.095363466858731427e-01
-1.335382023673549745e-01
-1.600294938158746683e-01
-1.876219613543483045e-01
-2.139085983400191848e-01
-2.359425446568213791e-01
-2.512170259487424007e-01
-2.585148542819822315e-01
-2.580639271002043711e-01
-2.510871550775910510e-01
-2.392023729422115830e-01
-2.239841344231310039e-01
-2.067463466726754684e-01
-1.884828525828183832e-01
-1.698904506798682434e-01
-1.514230738470312698e-01
-1.333501669325456718e-01
-1.158079002461992191e-01
-9.884001896152601330e-02
-8.242879210023207337e-02
-6.651784726963820560e-02
-5.102895510909009891e-02
-3.587467031740644574e-02
-2.096848422931594375e-02
-6.233878060570998726e-03
8.386587861173157993e-03
2.292130185017120236e-02
3.735834344743418911e-02
5.163330889814106428e-02
6.561775404780365029e-02
7.911141070823046739e-02
9.184294101293848100e-02
1.034845300753274161e-01
1.136837603931896423e-01
1.221109580816880369e-01
1.285127505025540906e-01
1.327570498087787820e-01
1.348551803181240460e-01
1.349547542726482197e-01
1.333078267523551130e-01
1.302265594699522910e-01
1.260396849213841763e-01
1.210588006510351783e-01
1.155576762202853713e-01
1.097633200717341162e-01
1.038554737592688459e-01
9.797103069461246538e-02
9.221062006122625332e-02
8.664557793567789767e-02
8.132434289696303942e-02
7.627788626969836394e-02
7.152409951119206855e-02
6.707123376951322491e-02
6.292054126651855372e-02
5.906827862998757089e-02
5.550721325991259114e-02
5.222775027306265916e-02
4.921877215901426794e-02
4.646826193302271146e-02
4.396376296787150861e-02
4.169271689796227864e-02
3.964270785024534560e-02
3.780163721007971656e-02
3.615784462437903607e-02
3.470018873726100211e-02
3.341809696346869502e-02
3.230159185143333805e-02
3.134129950752616300e-02
3.052844407868765542e-02
2.985483173265995535e-02
2.931282665064996115e-02
2.889532002119028081e-02
2.859569400891790597e-02
2.840778115994463046e-02
2.832581933002102648e-02
2.834440227826801398e-02
2.845842593130819970e-02
2.866302948198020534e-02
2.895352996801506956e-02
2.932534996974283520e-02
2.977393631516465217e-02
3.029466728854820698e-02
3.088274667572938476e-02
3.153308127257894999e-02
3.224013753813710637e-02
3.299777307665228282e-02
3.379903813151805686e-02
3.463593927688289609e-02
3.549915717683158750e-02
3.637771017685351160e-02
3.725855106620770685e-02
3.812608185297318431e-02
3.896157499101353394e-02
3.974247992588535172e-02
4.044159400545387778e-02
4.102608063756142676e-02
4.145631337789663917e-02
4.168453067094810005e-02
4.165330623103182667e-02
4.129385905510980781e-02
4.052428907485162990e-02
3.924791885063941277e-02
3.735208604994540854e-02
3.470806081647807850e-02
3.117313612537580061e-02
2.659681643595409803e-02
2.083386478608463543e-02
1.376832326495192743e-02
5.353270431977877331e-03
-4.329948846935730011e-03
-1.499501927967075016e-02
-2.607179500051916288e-02
-3.666023380249090746e-02
-4.556448414399658087e-02
-5.143460781409153054e-02
-5.297939380612233518e-02
-4.914334571155273140e-02
-3.913025492349227197e-02
-2.221237511604166187e-02
2.690731537172861773e-03
3.774267678191478570e-02
8.754148988326150571e-02
1.617417231962194613e-01
2.778378521921278099e-01
4.403545609059465460e-01
5.488399978452742634e-01
5.132695044347166391e-01
4.191537753231965868e-01
3.291872664869655574e-01
2.566924411245418147e-01
2.004509324920392965e-01
1.568384093058224349e-01
1.225844894356021564e-01
9.518466938239268649e-02
7.279627264364695038e-02
5.406228199206658536e-02
3.796115648946073173e-02
2.369463819069168170e-02
1.060629802529354515e-02
-1.878480523188758022e-03
-1.429839069512463950e-02
-2.719252092040180119e-02
-4.112836292346995493e-02
-5.671790503786316995e-02
-7.460971938666491332e-02
-9.543034017311302630e-02
-1.196283607057306575e-01
-1.471673887605988440e-01
-1.770784996743293149e-01
-2.070987230958599157e-01
-2.338804676764393853e-01
-2.540463137435369778e-01
-2.654982798069217553e-01
-2.679811817304474930e-01
-2.626808611425040518e-01
-2.514414386877286689e-01
-2.361396158283589897e-01
-2.183620592616321576e-01
-1.993099910904991834e-01
-1.798221452110968233e-01
-1.604417636001813086e-01
-1.414895307795608903e-01
-1.231270372587439099e-01
-1.054067304322221232e-01
-8.830917750567909841e-02
-7.177009281552451658e-02
-5.569981326567479546e-02
-3.999763541002784167e-02
-2.456305798793281814e-02
-9.305620103870811816e-03
5.845280564094484238e-03
2.092952220046142425e-02
3.594377693328379419e-02
5.082767182209220469e-02
6.545023278381863208e-02
7.960017408503125558e-02
9.298560820452478337e-02
1.052496333869532980e-01
1.160060872053881448e-01
1.248934845598249771e-01
1.316360724093667833e-01
1.360942049820760003e-01
1.382873749972775013e-01
1.383832782235226988e-01
1.366595077448818918e-01
1.334529788747603751e-01
1.291123522634691767e-01
1.239629189116582819e-01
1.182864476194818021e-01
1.123137255072121782e-01
1.062256625326628151e-01
1.001590142999943256e-01
9.421384036621682778e-02
8.846096161929022095e-02
8.294856860774747764e-02
7.770768777452649601e-02
7.275652021331141528e-02
6.810379872278811419e-02
6.375134515771793686e-02
5.969600231666841172e-02
5.593108721207454281e-02
5.244748223649980945e-02
4.923445493430513020e-02
4.628027221370618893e-02
4.357265945512733829e-02
4.109914332287383648e-02
3.884730603250705766e-02
3.680496948604645990e-02
3.496032830079009307e-02
3.330204296245835305e-02
3.181930147206146753e-02
3.050185712569564167e-02
2.934004801085862701e-02
2.832480298605476871e-02
2.744763882608273337e-02
2.670064606938819807e-02
2.607647064239412837e-02
2.556829345644705959e-02
2.516980273454632461e-02
2.487516802637121729e-02
2.467901027020906121e-02
2.457637224056168426e-02
2.456268787838291820e-02
2.463375037769814993e-02
2.478568026294886151e-02
2.501489288067607758e-02
2.531806669681529315e-02
2.569210026638819519e-02
2.613408617934398839e-02
2.664126528018286380e-02
2.721098545448937672e-02
2.784065556872853536e-02
2.852769380311414443e-02
2.926946857217743031e-02
3.006323180200106901e-02
3.090604229534559683e-02
3.179467584453290335e-02
3.272551936757146784e-02
3.369444467552352301e-02
3.469665972580759233e-02
3.572652968452980082e-02
3.677736192497099710e-02
3.784114791036170128e-02
3.890824768463340549e-02
3.996701535234652158e-02
4.100334354708472934e-02
4.200010933618340131e-02
4.293650926893961134e-02
4.378725937953546754e-02
4.452162515188310549e-02
4.510227803673555469e-02
4.548393728184890739e-02
4.561178595390445040e-02
4.541966806999817030e-02
4.482810984353348405e-02
4.374228239783613942e-02
4.205016502749519408e-02
3.962142564429260022e-02
3.630791981755716880e-02
3.194745356378402013e-02
2.637339620237312901e-02
1.943424464779745439e-02
1.102855827942465783e-02
1.161031101909952568e-03
-9.977970254043302956e-03
-2.191873712437305069e-02
-3.383522590122456375e-02
-4.453900759094263362e-02
-5.259520170293944391e-02
-5.655264466514080268e-02
-5.518645568208337127e-02
-4.760478628455183658e-02
-3.312344435117933056e-02
-1.089271578403056343e-02
2.075444322166026742e-02
6.545927833152954955e-02
1.311412692142967518e-01
2.338972803459872518e-01
3.915894479252529092e-01
5.419216847292225303e-01
5.444276723199733548e-01
4.537950133094374450e-01
3.573025271762278465e-01
2.781261072262546930e-01
2.167235691254996710e-01
1.693612216831703599e-01
1.324162933745831605e-01
1.030890449875543485e-01
7.933227741099548036e-02
5.965844201238659772e-02
4.296951345492574376e-02
2.843037051820909017e-02
1.537863099247083892e-02
3.260332355277173466e-03
-8.417197146031063504e-03
-2.012120587156751572e-02
-3.232143127198092852e-02
-4.551051394612168344e-02
-6.021335905813170880e-02
-7.697531096269819018e-02
-9.630850263638603137e-02
-1.185630661419651843e-01
-1.436879652661099682e-01
-1.708933882366616697e-01
-1.983698014233791218e-01
-2.233936531262049885e-01
-2.430516516960408435e-01
-2.552680142025623988e-01
-2.594187165459519440e-01
-2.562014796548834905e-01
-2.470683694930782270e-01
-2.336654541257482676e-01
-2.174838610392522131e-01
-1.997145963458560880e-01
-1.812300484439946513e-01
-1.626243686630724494e-01
-1.442718094958303499e-01
-1.263832745944954705e-01
-1.090536854456256310e-01
-9.229883638250900579e-02
-7.608293748233656284e-02
-6.033883778600634962e-02
-4.498297337685529251e-02
-2.992684733328762614e-02
-1.508660812184152086e-02
-3.920094300790630953e-04
1.420420830940382143e-02
2.871582109035704031e-02
4.311136752505269343e-02
5.730191609596604896e-02
7.113051286213141478e-02
8.436716572886812648e-02
9.671457122908865001e-02
1.078295302228451241e-01
1.173617849747784492e-01
1.250055244658300480e-01
1.305515618602581529e-01
1.339245849604749072e-01
1.351936195749360026e-01
1.345537215525439145e-01
1.322872730219192272e-01
1.287184132654531910e-01
1.241726612330191909e-01
1.189483537777496630e-01
1.133010390921178751e-01
1.074384191477683881e-01
1.015222537433352334e-01
9.567395232681134842e-02
8.998149140749507613e-02
8.450623859201432386e-02
7.928898876219483971e-02
7.435496818829248622e-02
6.971782270285872829e-02
6.538271377845007726e-02
6.134868230167165454e-02
5.761043412829737476e-02
5.415967955942246198e-02
5.098613360244846904e-02
4.807826099347066451e-02
4.542382765891759405e-02
4.301030628804625167e-02
4.082517407885682958e-02
3.885612725807965906e-02
3.709123169014069687e-02
3.551902684235243995e-02
3.412859377192478672e-02
3.290959488191639443e-02
3.185229284487604839e-02
3.094755260346573542e-02
3.018683205395172875e-02
2.956216413554385927e-02
2.906612976201782689e-02
2.869182357325160415e-02
2.843281928119795535e-02
2.828312592931017666e-02
2.823714302424640624e-02
2.828960988935915605e-02
2.843555140246178947e-02
2.867021851480722194e-02
2.898902173683725117e-02
2.938745700239285552e-02
2.986102470542070092e-02
3.040512986263919221e-02
3.101497973049948537e-02
3.168545426101267160e-02
3.241096172635055117e-02
3.318526226611344387e-02
3.400126437320709349e-02
3.485078196729017586e-02
3.572424165690222392e-02
3.661033535529733401e-02
3.749560456967639122e-02
3.836393665563214705e-02
3.919596645486989744e-02
3.996835942939385572e-02
4.065295641564498075e-02
4.121575785547389875e-02
4.161573326862576250e-02
4.180343882336663708e-02
4.171945075480187198e-02
4.129264884658818274e-02
4.043844768651305016e-02
3.905717799645185007e-02
3.703302181944745364e-02
3.423420030346302489e-02
3.051566598511053219e-02
2.572625765858549060e-02
1.972346845369657431e-02
1.239998901892300220e-02
3.726939344975650770e-03
-6.183098259982942879e-03
-1.699703110488159918e-02
-2.808489283341296730e-02
-3.848475296038450510e-02
-4.695600854110608402e-02
-5.213996510866476808e-02
-5.277635796991356210e-02
-4.786052595563244916e-02
-3.662985871833352586e-02
-1.833095463968308081e-02
8.249629511277471391e-03
4.559882109120885763e-02
9.901144946257257884e-02
1.795054669748904486e-01
3.055350283574539416e-01
4.701345088939035133e-01
5.521063177232117258e-01
4.974057881614036836e-01
4.013456080587876063e-01
3.143268889482806472e-01
2.450839261867632790e-01
1.914680547296312707e-01
1.498227670623132612e-01
1.170136634782448642e-01
9.067147626230008528e-02
6.905698600905968432e-02
5.088615719615611349e-02
3.518699758965190133e-02
2.119378203829461876e-02
8.270282492238330285e-03
-4.147083009098516404e-03
-1.659302089342966358e-02
-2.960806951297628720e-02
-4.376480630187606219e-02
-5.968083882660252248e-02
-7.800452956350290012e-02
-9.934372749084791065e-02
-1.240882305229662058e-01
-1.520761293114679391e-01
-1.821394632701149874e-01
-2.118037849289856611e-01
-2.376370774737824321e-01
-2.564068007282235828e-01
-2.663180521240835485e-01
-2.673998117392658580e-01
-2.609947503712776173e-01
-2.489802766237671772e-01
-2.331942946526780747e-01
-2.151583727563834425e-01
-1.960084232700588514e-01
-1.765284238523374960e-01
-1.572197946223597154e-01
-1.383731140177620889e-01
-1.201292441582765685e-01
-1.025269470035571895e-01
-8.553821033412682684e-02
-6.909381286692677093e-02
-5.310178096740168774e-02
-3.746106999615653188e-02
-2.207245845012857643e-02
-6.848278909822018250e-03
8.277676325305179800e-03
2.333908152770996017e-02
3.832437012929686831e-02
5.316283522288658969e-02
6.771143725323802709e-02
8.174621329592146601e-02
9.496409422370352682e-02
1.070014481256263694e-01
1.174729500098224688e-01
1.260274123932698109e-01
1.324082237365093451e-01
1.365002409545097439e-01
1.383475650704378279e-01
1.381376726821881007e-01
1.361602513178981344e-01
1.327563410652177478e-01
1.282723796627537605e-01
1.230274469204424570e-01
1.172953219911205408e-01
1.112986202933705232e-01
1.052108229316866955e-01
9.916240191942624072e-02
9.324834710080215361e-02
8.753551707836915163e-02
8.206907325535642284e-02
7.687776126576359448e-02
7.197808559288990105e-02
6.737753027315070142e-02
6.307700851502365258e-02
5.907271179881586065e-02
5.535750029360543556e-02
5.192194611315115171e-02
4.875511834344216366e-02
4.584516818375959646e-02
4.317976865192671432e-02
4.074644202197988396e-02
3.853279998814485019e-02
3.652671999992104096e-02
3.471647070905013732e-02
3.309079885692538248e-02
3.163898746356298697e-02
3.035088866341313987e-02
2.921694214348433474e-02
2.822817892462889389e-02
2.737621646641225787e-02
2.665324231211603154e-02
2.605199755122968724e-02
2.556575271209528613e-02
2.518828186043892831e-02
2.491383471331861180e-02
2.473710711755724989e-02
2.465321093745905662e-02
2.465764305887519978e-02
2.474625311135641992e-02
2.491521110338965408e-02
2.516097492516132517e-02
2.548025573625245857e-02
2.586997760727598877e-02
2.632724819708883585e-02
2.684931195537089074e-02
2.743350760581073772e-02
2.807721996634420999e-02
2.877782635889274826e-02
2.953263334620601782e-02
3.033880745496054382e-02
3.119329348755671069e-02
3.209271931342417422e-02
3.303328265104739370e-02
3.401061709743907063e-02
3.501963329948513254e-02
3.605432756447240344e-02
3.710755122557917590e-02
3.817073558561847463e-02
3.923355433733637793e-02
4.028352025753893784e-02
4.130549779723587805e-02
4.228111334558175977e-02
4.318803996175959309e-02
4.399914315221507832e-02
4.468145355946048086e-02
4.519494608869202568e-02
4.549110069931585482e-02
4.551124442620336358e-02
4.518468035197890920e-02
4.442667155547902480e-02
4.313644599753244796e-02
4.119554653158172958e-02
3.846718071077274981e-02
3.479767408052564931e-02
3.002198946746043734e-02
2.397641425051309089e-02
1.652296049721577176e-02
7.591315185548751232e-03
-2.756601036469935595e-03
-1.424020763287542346e-02
-2.626792344747990240e-02
-3.787906861855788732e-02
-4.777772891639292530e-02
-5.449529867265372890e-02
-5.664044251890753418e-02
-5.310823981696918133e-02
-4.310912488841640855e-02
-2.595387810974963960e-02
-5.898588505183649001e-04
3.518914524001364591e-02
8.621185545660497995e-02
1.628643719291860692e-01
2.844472040542785907e-01
4.553173730119983165e-01
5.612568682430212341e-01
5.159797714202775110e-01
4.174778420873901386e-01
3.264836605448726004e-01
2.540781117127447475e-01
1.982083524253517026e-01
1.549856892943932696e-01
1.210709042143598979e-01
9.395703790509099540e-02
7.182119362847183552e-02
5.333357931791690709e-02
3.750318862659859920e-02
2.356559570908269008e-02
1.090327487152106117e-02
-1.011693384793156680e-03
-1.266019092543738817e-02
-2.450887207156760006e-02
-3.703553541580015956e-02
-5.074621838309376770e-02
-6.617836194064324884e-02
-8.387640511033198076e-02
-1.043141944992965892e-01
-1.277271934122177766e-01
-1.538280313600789428e-01
-1.814592267863949782e-01
-2.084131772770467239e-01
-2.317681750334147084e-01
-2.488051033550891245e-01
-2.579638511557232339e-01
-2.591746262805457168e-01
-2.535017021282338079e-01
-2.425329221941241453e-01
-2.278886460109700862e-01
-2.109572713654860321e-01
-1.928079840728266214e-01
-1.742016232020841826e-01
-1.556417282607411023e-01
-1.374339422658660548e-01
-1.197396712581494382e-01
-1.026195143897334211e-01
-8.606642072180623049e-02
-7.003022627839827763e-02
-5.443565515056204146e-02
-3.919575336834837942e-02
-2.422248461461790417e-02
-9.435943879275970197e-03
5.226612393085977235e-03
1.980099548003162735e-02
3.428505484408451293e-02
4.862655310890617172e-02
6.271120313903874588e-02
7.635368069749670639e-02
8.929609952143814644e-02
1.012193431398338839e-01
1.117713901138488869e-01
1.206121633072949062e-01
1.274671750217689914e-01
1.321758514374836990e-01
1.347193784742632128e-01
1.352195581887457865e-01
1.339110500387910851e-01
1.310982323598415822e-01
1.271103838006814313e-01
1.222654053233356020e-01
1.168463940909156007e-01
1.110905529291579402e-01
1.051872927054866846e-01
9.928193745210595056e-02
9.348207340697284318e-02
8.786456394834785133e-02
8.248212488798263575e-02
7.736897315817474474e-02
7.254542529668972506e-02
6.802152030306557462e-02
6.379981066553741531e-02
5.987748293086158496e-02
5.624795460464505903e-02
5.290207005618340064e-02
4.982899192766335889e-02
4.701686544394666212e-02
4.445330667856341178e-02
4.212576370383284280e-02
4.002177949799835127e-02
3.812917885315424138e-02
3.643620057135146112e-02
3.493158616839657504e-02
3.360463606968940725e-02
3.244524160630290338e-02
3.144389582913432318e-02
3.059169275081020933e-02
2.988031322059865602e-02
2.930200543583635561e-02
2.884955307778888645e-02
2.851624299842477755e-02
2.829582736350310865e-02
2.818247947069364018e-02
2.817074791794129535e-02
2.825550537361351533e-02
2.843189389348935170e-02
2.869526372373130962e-02
2.904110533337877359e-02
2.946497561045594363e-02
2.996241238321122741e-02
3.052883513214649583e-02
3.115943737696405882e-02
3.184905565999638505e-02
3.259201855155052785e-02
3.338196568181681784e-02
3.421163786467787404e-02
3.507262479259846966e-02
3.595506227750494554e-02
3.684727279466130934e-02
3.773533501210504099e-02
3.860255826581227706e-02
3.942886690882261430e-02
4.019005577163198284e-02
4.085690321174717532e-02
4.139412249464252680e-02
4.175913155207587601e-02
4.190063099057392271e-02
4.175700154275562015e-02
4.125456232861103578e-02
4.030580330491741886e-02
3.880783084626492768e-02
3.664146770908977696e-02
3.367180579682465397e-02
2.975157052080703440e-02
2.472948906235334504e-02
1.846699477388587252e-02
1.086770774902667130e-02
1.924505377373146586e-03
-8.213499092311726812e-03
-1.916010461340678095e-02
-3.021986068786228566e-02
-4.036667920167581053e-02
-4.831863689971722942e-02
-5.271678031053732283e-02
-5.234093327408384511e-02
-4.624100443984596048e-02
-3.368184446946661387e-02
-1.386517807385465734e-02
1.459438077946809652e-02
5.458499605346918415e-02
1.122569809967907811e-01
2.002169496996740738e-01
3.370363072496219137e-01
4.984614138889403301e-01
5.496757423499964990e-01
4.791470951182469906e-01
3.828096799865058353e-01
2.991925545856262691e-01
2.333167430617701654e-01
1.823565274350129606e-01
1.426877113086713611e-01
1.113278847570548513e-01
8.604637380222110443e-02
6.520751199891293426e-02
4.759957817783788681e-02
3.229932571844919276e-02
1.857272022922971944e-02
5.802816303986525759e-03
-6.563985237068456491e-03
-1.905961535238751003e-02
-3.222737330362264452e-02
-4.664609031273073136e-02
-6.293936335010598404e-02
-8.175348416041283706e-02
-1.036709676744340392e-01
-1.290079104633180263e-01
-1.574523015089740463e-01
-1.876107302618641448e-01
-2.167904639735010464e-01
-2.415049619543797599e-01
-2.587166805132931624e-01
-2.669677078938489934e-01
-2.665760866863827738e-01
-2.590301750849504647e-01
-2.462274528349795433e-01
-2.299571663763554652e-01
-2.116695576560774228e-01
-1.924315385695729019e-01
-1.729701774179593921e-01
-1.537438211536363841e-01
-1.350122140502178769e-01
-1.168950785028272793e-01
-9.941727920992862733e-02
-8.254214594476567968e-02
-6.619554664518692566e-02
-5.028330839883456138e-02
-3.470425804814788323e-02
-1.936078309269961134e-02
-4.168490272244744499e-03
1.093376287345962546e-02
2.597254775463966187e-02
4.092691696149417663e-02
5.571447965779618289e-02
7.017871343645643023e-02
8.408176582983858949e-02
9.710874456817120137e-02
1.088896248227797098e-01
1.190414205143434656e-01
1.272257833495128443e-01
1.332082920222133759e-01
1.369010932446840800e-01
1.383748096348990653e-01
1.378375171895954709e-01
1.355908556626642947e-01
1.319792544950787738e-01
1.273459267739273926e-01
1.220027473475008700e-01
1.162146414267204164e-01
1.101953540376361257e-01
1.041104025573990066e-01
9.808357474305365309e-02
9.220449643575899523e-02
8.653585113442904819e-02
8.111961701636681565e-02
7.598214942024668350e-02
7.113817894164557731e-02
6.659388748740194264e-02
6.234924368046029786e-02
5.839976485232573067e-02
5.473784068605358488e-02
5.135372735416145196e-02
4.823629276232121316e-02
4.537357529113543453e-02
4.275320060808894540e-02
4.036269215545330857e-02
3.818969942094180975e-02
3.622216374061802691e-02
3.444843637096963590e-02
3.285735964198715359e-02
3.143831933355142882e-02
3.018127617715935310e-02
2.907677995567233345e-02
2.811597167276078807e-02
2.729057599527708738e-02
2.659288593763354733e-02
2.601574317719566182e-02
2.555251486873450981e-02
2.519706611763101317e-02
2.494373197903672346e-02
2.478728833305779769e-02
2.472292048203168779e-02
2.474619149968600162e-02
2.485301085869801724e-02
2.503960103438513871e-02
2.530246351749509612e-02
2.563834420134910794e-02
2.604419610457815726e-02
2.651714102007701052e-02
2.705442717248160434e-02
2.765338351979645948e-02
2.831137060835754726e-02
2.902572124210870547e-02
2.979367707457306058e-02
3.061231472652409941e-02
3.147845927743229966e-02
3.238858392016091825e-02
3.333868791313619739e-02
3.432415486570455920e-02
3.533958440185502176e-02
3.637858565150745016e-02
3.743353300504882047e-02
3.849527021849338121e-02
3.955275306289234016e-02
4.059261562637072468e-02
4.159864812398830075e-02
4.255116743470678531e-02
4.342625758318488516e-02
4.419485416135787714e-02
4.482165515689675445e-02
4.526382632707580400e-02
4.546948980117614114e-02
4.537598228411952872e-02
4.490792981459771488e-02
4.397521986697697227e-02
4.247108493673742990e-02
4.027071547727149869e-02
3.723120610995930141e-02
3.319417629029929040e-02
2.799340050623401813e-02
2.147103394434016210e-02
1.350748759330089310e-02
4.070847915965805641e-03
-6.710322900740646468e-03
-1.845576965216408349e-02
-3.044761896603433854e-02
-4.159818739669556009e-02
-5.052777928826114595e-02
-5.576738581592834837e-02
-5.601101426232200919e-02
-5.027406924164220386e-02
-3.783896202593848429e-02
-1.795367041130436006e-02
1.072818177975757951e-02
5.111401423904184116e-02
1.095492070703118909e-01
1.993793191362898398e-01
3.411433227980503191e-01
5.095288086243656700e-01
5.585233021720661384e-01
4.824891823095991406e-01
3.834539234038308875e-01
2.988712292769358236e-01
2.327221891753745164e-01
1.817394639740404494e-01
1.421310392422666102e-01
1.108568339681314519e-01
8.567349549982276880e-02
6.495207213477650898e-02
4.749708805819142371e-02
3.240782334479208604e-02
1.897881969075236597e-02
6.629109432326606155e-03
-5.149200520696270433e-03
-1.682967750408043139e-02
-2.888168316772598415e-02
-4.179315478528256023e-02
-5.608372260718201552e-02
-7.230002007533756214e-02
-9.097551850629642667e-02
-1.125242605165664989e-01
-1.370305227325267494e-01
-1.639260251308604088e-01
-1.916646186619231085e-01
-2.176938722978547236e-01
-2.390311844445578426e-01
-2.532889441946540865e-01
-2.594590681884932915e-01
-2.579591369407553958e-01
-2.501217928999728835e-01
-2.375968693403509857e-01
-2.219422507409490319e-01
-2.044340081308164692e-01
-1.860242134663848967e-01
-1.673722377651160609e-01
-1.489017336237134503e-01
-1.308591002302133544e-01
-1.133636919464214854e-01
-9.644739967847801299e-02
-8.008443077832778922e-02
-6.421320718569017982e-02
-4.875247398706653718e-02
-3.361350301992480083e-02
-1.871003108067049309e-02
-3.967288744212468798e-03
1.066876896692590601e-02
2.522123536438770908e-02
3.967072223814307325e-02
5.394304740047992097e-02
6.789793282784391260e-02
8.132219149328727414e-02
9.393239141269080217e-02
1.053922854810546150e-01
1.153478223971339811e-01
1.234767334650950510e-01
1.295421576443941958e-01
1.334349278432951091e-01
1.351909676866165089e-01
1.349792128618818032e-01
1.330663628927477582e-01
1.297714975071935783e-01
1.254235217933703794e-01
1.203294916099940104e-01
1.147560973364475656e-01
1.089224773443012717e-01
1.030008537601076191e-01
9.712154718266716169e-02
9.137976976006911833e-02
8.584257209471277128e-02
8.055510726483107453e-02
7.554588464277438298e-02
7.083098724353510678e-02
6.641736143307211404e-02
6.230533605971397965e-02
5.849052885412312636e-02
5.496527878682982982e-02
5.171971671561691186e-02
4.874256346200837170e-02
4.602172173038337338e-02
4.354471276678793107e-02
4.129899631796505460e-02
3.927220413028408019e-02
3.745230373837059312e-02
3.582771311142367299e-02
3.438737671056391054e-02
3.312081176538336780e-02
3.201813256444042965e-02
3.107005588840001942e-02
3.026789546994089475e-02
2.960354616743181289e-02
2.906946019536394213e-02
2.865861426900462999e-02
2.836447703688615291e-02
2.818096797521858418e-02
2.810241430757687287e-02
2.812350311061718316e-02
2.823923009143542578e-02
2.844484338018105421e-02
2.873578137897780591e-02
2.910760421981431131e-02
2.955591794679633677e-02
3.007628419510931933e-02
3.066412442579843564e-02
3.131460352460419677e-02
3.202249810718563183e-02
3.278203790201061896e-02
3.358672075845971217e-02
3.442909479585015697e-02
3.530049582801521313e-02
3.619073439911944801e-02
3.708772261082732974e-02
3.797702548980273762e-02
3.884131754066894732e-02
3.965974220226219094e-02
4.040713965048137180e-02
4.105312569707857823e-02
4.156100732021734967e-02
4.188651128865301249e-02
4.197632138097553284e-02
4.176643810317230698e-02
4.118041543862169945e-02
4.012760586657580786e-02
3.850169260591689013e-02
3.617998930619224784e-02
3.302444520444804132e-02
2.888580266138491420e-02
2.361337617860017474e-02
1.707399969270841089e-02
9.184800204377542576e-03
-3.556473301374180052e-05
-1.039599156122322787e-02
-2.145112170471173349e-02
-3.243545308931858329e-02
-4.225850588302794419e-02
-4.960284337935175203e-02
-5.311920116712848250e-02
-5.163604582871500481e-02
-4.425897650575773279e-02
-3.027032692621924037e-02
-8.803011476748619224e-03
2.174642401775739309e-02
6.475952528787108642e-02
1.274259034118284117e-01
2.241224603181145580e-01
3.718256796863339542e-01
5.227779976131038397e-01
5.415823198435048003e-01
4.591389313866007793e-01
3.639727291155794298e-01
2.840741584789355789e-01
2.215995902006693552e-01
1.732715732691333665e-01
1.355513689097803121e-01
1.056188135426978925e-01
8.138175437077627139e-02
6.130597402792162254e-02
4.424995012856435678e-02
2.933741075074793384e-02
1.586451897232262626e-02
3.232259212887507449e-03
-9.104313058741687892e-03
-2.167570788749939581e-02
-3.502930263596878979e-02
-4.975115039880526058e-02
-6.647066718584566936e-02
-8.582915581388425585e-02
-1.083753086561899115e-01
-1.343342023984893663e-01
-1.632179095889560450e-01
-1.933852122800670814e-01
-2.219301301182388109e-01
-2.453545903473416112e-01
-2.608684136887249316e-01
-2.673750883582953763e-01
-2.654750218299979925e-01
-2.567839745342880842e-01
-2.432038422246910470e-01
-2.264656327148929782e-01
-2.079433891306211035e-01
-1.886328795716271378e-01
-1.692034900162988909e-01
-1.500703370218536559e-01
-1.314624206490468405e-01
-1.134784995276168773e-01
-9.612973927731219281e-02
-7.937101256073689215e-02
-6.312348705580317354e-02
-4.729103085984848187e-02
-3.177263157715035091e-02
-1.647266881482908896e-02
-1.310535120783478530e-03
1.376916253499044750e-02
2.878500336824063588e-02
4.370556305819937870e-02
5.843553741940472890e-02
7.280373014039318025e-02
8.655752332942390215e-02
9.937003229071172949e-02
1.108657102775257447e-01
1.206658940325118640e-01
1.284478483713565045e-01
1.340022165372674601e-01
1.372706744362976461e-01
1.383515243347742951e-01
1.374734777307078104e-01
1.349493944743166141e-01
1.311259904422278910e-01
1.263421499403692694e-01
1.209016046329559890e-01
1.150597130801864487e-01
1.090208473928849925e-01
1.029422164618212232e-01
9.694069658412769741e-02
9.110039946050792203e-02
8.547973319485904775e-02
8.011742726558990224e-02
7.503740369854904058e-02
7.025259176218764945e-02
6.576785425743214564e-02
6.158220636905258061e-02
5.769048754549274682e-02
5.408461751304591975e-02
5.075453892075287160e-02
4.768892484968043077e-02
4.487570707678597420e-02
4.230247095297847565e-02
3.995674977419050311e-02
3.782623886499833499e-02
3.589895163297834868e-02
3.416332984280757296e-02
3.260831880984241260e-02
3.122341577689034808e-02
2.999869617806959210e-02
2.892482604536456350e-02
2.799306269959261906e-02
2.719524489722852448e-02
2.652377540737263853e-02
2.597160263447798045e-02
2.553219401250855086e-02
2.519951028320738251e-02
2.496797595812403833e-02
2.483244942072277556e-02
2.478819231219846903e-02
2.483083737783628800e-02
2.495635579544247182e-02
2.516102339694229612e-02
2.544138955691414503e-02
2.579423476047395733e-02
2.621653809748508354e-02
2.670543751592478754e-02
2.725818421118321108e-02
2.787209601042148904e-02
2.854450487931141367e-02
2.927269785927104351e-02
3.005384760412384282e-02
3.088493559390119089e-02
3.176266028971075350e-02
3.268333015434407574e-02
3.364273553707291392e-02
3.463599771921206660e-02
3.565738794365383435e-02
3.670010949725231730e-02
3.775603749805307024e-02
3.881539794138537391e-02
3.986639031233002450e-02
4.089472605726816173e-02
4.188307043277563618e-02
4.281036927022103394e-02
4.365104185326861702e-02
4.437400552852983210e-02
4.494151922101765478e-02
4.530781885395764041e-02
4.541752723019312765e-02
4.520384714202591026e-02
4.458658665455618453e-02
4.347014313519776546e-02
4.174171097265985675e-02
3.927026140730084658e-02
3.590720915027558607e-02
3.149047879012839557e-02
2.585460527073260226e-02
1.885104049050618374e-02
1.038410812282607870e-02
4.682296822056536412e-04
-1.069173881349481242e-02
-2.260741824054950111e-02
-3.443318394394292992e-02
-4.496646012052596397e-02
-5.277065705738279155e-02
-5.640777805270581063e-02
-5.467493688249679823e-02
-4.669837197010096030e-02
-3.179425248615853211e-02
-9.082819285747915569e-03
2.318149666349186844e-02
6.880799293518598259e-02
1.360604905511798579e-01
2.415386000494505747e-01
4.017150096701631590e-01
5.460884391165444773e-01
5.401026163273865421e-01
4.477561166300624840e-01
3.521266049432633105e-01
2.740937990778657962e-01
2.136305536255219684e-01
1.669689586780993551e-01
1.305347431123935198e-01
1.015786578282307090e-01
7.809175653832454989e-02
5.861290495364169378e-02
4.206148988359811880e-02
2.761331675059577190e-02
1.461221881314789944e-02
2.506864564111768723e-03
-9.195709254943826294e-03
-2.096559319980657865e-02
-3.327764346077561469e-02
-4.663143439183133065e-02
-6.155947254821798886e-02
-7.861254981348157755e-02
-9.830011148469131044e-02
-1.209505596318259657e-01
-1.464569849453960793e-01
-1.739297497445667917e-01
-2.014331802780106317e-01
-2.261524259830865469e-01
-2.451878314511339307e-01
-2.565873715454865533e-01
-2.598896598018642923e-01
-2.559180902839857663e-01
-2.461861244553314176e-01
-2.323491278408040817e-01
-2.158785476169319262e-01
-1.979349905822050670e-01
-1.793601295377894311e-01
-1.607216455768859242e-01
-1.423728222283820732e-01
-1.245088034127322940e-01
-1.072131064088597263e-01
-9.049354139626049343e-02
-7.430893739486701954e-02
-5.858873397699009000e-02
-4.324748445996638713e-02
-2.819607549438938460e-02
-1.335120473076403108e-02
1.355625022414379439e-03
1.596856858900377527e-02
3.049672000828974189e-02
4.490215693675998071e-02
5.908768236575194510e-02
7.288664155516910714e-02
8.605892163670947337e-02
9.829846368352372632e-02
1.092570828345448830e-01
1.185856129174086004e-01
1.259866801046192197e-01
1.312661365543333902e-01
1.343674894691987975e-01
1.353784209114228532e-01
1.345089237495478152e-01
1.320505975159112222e-01
1.283309135825979053e-01
1.236739904150444963e-01
1.183737423554755697e-01
1.126798726958221086e-01
1.067940031524847178e-01
1.008722986690372553e-01
9.503139687249798073e-02
8.935540911365393024e-02
8.390268621455938824e-02
7.871173291720451326e-02
7.380607520827610346e-02
6.919812044448789279e-02
6.489214458220010640e-02
6.088656818559991940e-02
5.717567367761533514e-02
5.375089275420457530e-02
5.060176742632639668e-02
4.771666597999638798e-02
4.508331273588908616e-02
4.268917768552994707e-02
4.052176244844429842e-02
3.856880616138669282e-02
3.681842978939018490e-02
3.525923547334929714e-02
3.388037126129947452e-02
3.267156855279847866e-02
3.162315956763220304e-02
3.072607834249750647e-02
2.997185099104662104e-02
2.935257763732023947e-02
2.886090578508872240e-02
2.848999646651255088e-02
2.823349044448979564e-02
2.808546569736665791e-02
2.804039386578413562e-02
2.809309139639848407e-02
2.823866741059890412e-02
2.847246673291967817e-02
2.879000644851352486e-02
2.918690567358456917e-02
2.965880854154197277e-02
3.020129033176630756e-02
3.080976082641440419e-02
3.147934276934759995e-02
3.220473664877958331e-02
3.298005573828616255e-02
3.379863537409653201e-02
3.465280653357483143e-02
3.553362276217567756e-02
3.643053557813692028e-02
3.733100651817663346e-02
3.822003882110285022e-02
3.907961507923934236e-02
3.988802922874797735e-02
4.061908405019871993e-02
4.124113557130437702e-02
4.171596930150948263e-02
4.199748560639425532e-02
4.203019477717515745e-02
4.174754050331262040e-02
4.107012007498059281e-02
3.990395610205138555e-02
3.813913506818999988e-02
3.564936924644598881e-02
3.229352101555434118e-02
2.792071105587767832e-02
2.238172631116486927e-02
1.555051751776480307e-02
7.360634571639004808e-03
-2.139111316350333913e-03
-1.270999851189744123e-02
-2.384180010384382570e-02
-3.469559699022117805e-02
-4.411834295117060545e-02
-5.076503754090856690e-02
-5.330695054104534619e-02
-5.062856264016069030e-02
-4.188933757365351923e-02
-2.637517724132809604e-02
-3.121166106996570763e-03
2.974897554447507309e-02
7.622020783313745995e-02
1.447322346514398617e-01
2.514958255400846499e-01
4.088797763676266794e-01
5.407874263727499020e-01
5.284569068856614926e-01
4.380038457170792876e-01
3.451652138092976552e-01
2.691761276809264136e-01
2.100745965590134212e-01
1.643179915217312381e-01
1.284936189315291633e-01
9.994872234223217689e-02
7.672701611321745829e-02
5.739212127180759460e-02
4.086964992984873368e-02
2.632790527794386798e-02
1.309133061354548350e-02
5.771996822947350614e-04
-1.175228901113171964e-02
-2.442766637264773971e-02
-3.800166281798970924e-02
-5.306827892890924464e-02
-7.026199108036265684e-02
-9.021496060581682408e-02
-1.134314829031535798e-01
-1.400257586730386250e-01
-1.693074434295338826e-01
-1.993705195433106425e-01
-2.271133933056873333e-01
-2.490801772674414993e-01
-2.627788837191031290e-01
-2.674881439395047078e-01
-2.640743737110721190e-01
-2.542578700130967984e-01
-2.399284344754997189e-01
-2.227500880530419447e-01
-2.040171174808811383e-01
-1.846532748139304847e-01
-1.652705312466178633e-01
-1.462414091404398153e-01
-1.277648338387971927e-01
-1.099191853178847489e-01
-9.270240845066017588e-02
-7.606131278426607467e-02
-5.991270525252576085e-02
-4.415882007372799734e-02
-2.869916116730925754e-02
-1.344052483537285479e-02
1.693365856156776178e-03
1.675144783022405187e-02
3.174341551699168262e-02
4.662630849092916363e-02
6.129077216593247640e-02
7.554992457918519033e-02
8.913582649387646883e-02
1.017098648013847889e-01
1.128923036348676856e-01
1.223111766699878922e-01
1.296622816529830469e-01
1.347640200416706235e-01
1.375893509299201400e-01
1.382647473919603187e-01
1.370389741596305111e-01
1.342349076399559638e-01
1.302002173066285073e-01
1.252682983437836683e-01
1.197338780743050501e-01
1.138421778991273725e-01
1.077878513439453068e-01
1.017196074320218246e-01
9.574731182884721470e-02
8.994951588460119163e-02
8.438033601926682448e-02
7.907524996522165284e-02
7.405575076660195211e-02
6.933297396160627291e-02
6.491047258385237995e-02
6.078631811709985650e-02
5.695468234199911606e-02
5.340702506246313569e-02
5.013298597754250324e-02
4.712105269246309042e-02
4.435905980682228189e-02
4.183456211058711460e-02
3.953511109449650562e-02
3.744845610472654490e-02
3.556269042684193082e-02
3.386635392867946848e-02
3.234850215854605249e-02
3.099874920955442148e-02
2.980729180838403297e-02
2.876491801776889443e-02
2.786300678982763651e-02
2.709351465945977061e-02
2.644895923307814464e-02
2.592239877018125138e-02
2.550740500985406584e-02
2.519803713052804622e-02
2.498881159504422883e-02
2.487467221420303770e-02
2.485095905427052790e-02
2.491337564383169431e-02
2.505795606711672813e-02
2.528103143117714849e-02
2.557919749636160603e-02
2.594927001411671125e-02
2.638825551517359758e-02
2.689330596167169296e-02
2.746167388567630208e-02
2.809066384528127736e-02
2.877757734164220274e-02
2.951965062218776109e-02
3.031398235604421468e-02
3.115745225822395825e-02
3.204662441765913916e-02
3.297763345346454988e-02
3.394604867834270095e-02
3.494671415576032503e-02
3.597355552563755166e-02
3.701934771647860667e-02
3.807543643986140841e-02
3.913140232746025599e-02
4.017465117059577234e-02
4.118992305899249473e-02
4.215869940079508549e-02
4.305848713153033469e-02
4.386195519081388661e-02
4.453590554213708586e-02
4.504004787650661701e-02
4.532555753964793988e-02
4.533341200518363479e-02
4.499252484793840601e-02
4.421773868397991386e-02
4.290785219670832651e-02
4.094401462305684303e-02
3.818915824871019216e-02
3.448959153414957179e-02
2.968075344537090057e-02
2.360026038860004935e-02
1.611282710728408757e-02
7.152863892123537126e-03
-3.210352328385256138e-03
-1.468611693044365868e-02
-2.667102586988732288e-02
-3.819380085437546618e-02
-4.795351556626988726e-02
-5.448556949365873647e-02
-5.641086507891920204e-02
-5.263891815499220639e-02
-4.238817812952262037e-02
-2.496312410648882096e-02
7.172023884053175743e-04
3.692325012483836655e-02
8.861689889940546627e-02
1.664413645277844078e-01
2.898798733278656337e-01
4.610030168135302864e-01
5.614051649931515175e-01
5.124912626313241626e-01
4.138324983742076024e-01
3.235290075010477939e-01
2.518053142054796911e-01
1.964650700783066584e-01
1.536311901124350343e-01
1.199984680024756001e-01
9.308915474760018349e-02
7.110127787772735353e-02
5.271904975488708733e-02
3.696037997487269799e-02
2.306608929407506781e-02
1.042116128419854487e-02
-1.501995882941316307e-03
-1.318582382155921578e-02
-2.510027290842054698e-02
-3.772802056794694742e-02
-5.158116829033677908e-02
-6.720328132346703454e-02
-8.514223928769264205e-02
-1.058669795125537216e-01
-1.295900125679420034e-01
-1.559713367398768979e-01
-1.837680799955869748e-01
-2.106786814713366152e-01
-2.337330751100621662e-01
-2.502518181269574593e-01
-2.587841289998494831e-01
-2.593775228957220236e-01
-2.531750816274800364e-01
-2.417965782945615816e-01
-2.268611121303364953e-01
-2.097392231743887558e-01
-1.914772126802500030e-01
-1.728141092388606470e-01
-1.542351661016644337e-01
-1.360317456633409750e-01
-1.183546072827543205e-01
-1.012566832553273705e-01
-8.472557573457580038e-02
-6.870754132633152822e-02
-5.312507596963207679e-02
-3.789007265245357414e-02
-2.291426818264924448e-02
-8.118429169742593168e-03
6.558554050385577081e-03
2.114974409124284124e-02
3.564894530552360774e-02
4.999844516226782665e-02
6.407711423580839116e-02
7.769185223923689987e-02
9.057705792356759988e-02
1.024075545702765461e-01
1.128288422415124198e-01
1.215035553332047269e-01
1.281656232722786781e-01
1.326674062797546239e-01
1.350049373701486255e-01
1.353136947089477460e-01
1.338384440355117333e-01
1.308890604915449729e-01
1.267960075516214868e-01
1.218751612234797305e-01
1.164057259702000885e-01
1.106202748157887883e-01
1.047036398045643052e-01
9.879705739339185444e-02
9.300469954737553002e-02
8.740070543791109148e-02
8.203569007974090277e-02
7.694229051765538729e-02
7.213966104910855826e-02
6.763700179976231408e-02
6.343627138476902461e-02
5.953424512251237477e-02
5.592406445181825891e-02
5.259639663541526566e-02
4.954029856884229616e-02
4.674386033051788208e-02
4.419468068387352733e-02
4.188021521377270628e-02
3.978803164084524641e-02
3.790599158866207047e-02
3.622237899963368091e-02
3.472598316805115826e-02
3.340615563561027956e-02
3.225283868261900888e-02
3.125657887289885056e-02
3.040852126906282843e-02
2.970039817883029371e-02
2.912450754901957026e-02
2.867368348747065948e-02
2.834126436561660439e-02
2.812105404996724511e-02
2.800728076976029615e-02
2.799455239152923158e-02
2.807780665471040424e-02
2.825225755709799558e-02
2.851333788601561128e-02
2.885663549944041464e-02
2.927781678250643629e-02
2.977255300091762383e-02
3.033642412664397381e-02
3.096481617166355754e-02
3.165279700882335512e-02
3.239497394633557986e-02
3.318532687963533095e-02
3.401700851480878723e-02
3.488210781412796890e-02
3.577136810395445399e-02
3.667384867263206311e-02
3.757652058093487180e-02
3.846377582152320229e-02
3.931684801819058245e-02
4.011311380608047900e-02
4.082525610038950648e-02
4.142027447244017030e-02
4.185831752802898764e-02
4.209132490894371137e-02
4.206147951581731825e-02
4.169949680323201124e-02
4.092283591760612765e-02
3.963400849897425610e-02
3.771936485687812229e-02
3.504896399218093705e-02
3.147872090566158909e-02
2.685662896097651756e-02
2.103602962385533667e-02
1.390000257162440911e-02
5.401807892086905871e-03
-4.374849162766786259e-03
-1.513785057752578544e-02
-2.630683758561168026e-02
-3.696745337021251077e-02
-4.590802043707876284e-02
-5.176576415819852950e-02
-5.324367875347386925e-02
-4.928788599491901179e-02
-3.910665044814232161e-02
-2.197141400500204553e-02
3.215256208941303165e-03
3.866781712048460162e-02
8.910685340257555598e-02
1.644568395185608267e-01
2.825680530685273362e-01
4.464790531514485905e-01
5.509407370590853059e-01
5.112615351620514170e-01
4.162847539719900514e-01
3.266326705075798253e-01
2.546375626105681911e-01
1.988350411791628969e-01
1.555640341472593335e-01
1.215666820813647991e-01
9.435859214153671792e-02
7.211483336379279074e-02
5.349227279906942911e-02
3.748000033769289391e-02
2.328810907555604881e-02
1.026713996738985030e-02
-2.151169255505361311e-03
-1.449910892571742993e-02
-2.730871775168502991e-02
-4.113928486445141836e-02
-5.659319570493492879e-02
-7.430851514689981729e-02
-9.490269220563773978e-02
-1.188227155861210360e-01
-1.460494694932480408e-01
-1.756637070876047590e-01
-2.054846372684972222e-01
-2.322457562671170206e-01
-2.525950530729612620e-01
-2.643844781153149026e-01
-2.672704676311931093e-01
-2.623614621052516860e-01
-2.514569036580119321e-01
-2.364182846039826202e-01
-2.188350867042432313e-01
-1.999195217654889389e-01
-1.805234726960876501e-01
-1.612025350731436657e-01
-1.422878323710497495e-01
-1.239492786798916252e-01
-1.062457318729508049e-01
-8.916258169282838264e-02
-7.263909476167801360e-02
-5.658814353946915732e-02
-4.091071563673262523e-02
-2.550723358635221399e-02
-1.028737499646124529e-02
4.820224078207115820e-03
1.985730545946303924e-02
3.482376875811891287e-02
4.966407041404412998e-02
6.425374500207874096e-02
7.838939371943567935e-02
9.178749443212319559e-02
1.040983752254615868e-01
1.149398940411288095e-01
1.239494951582552351e-01
1.308445187998688308e-01
1.354735830025721177e-01
1.378421853009622611e-01
1.381048758499478502e-01
1.365293765489046240e-01
1.334470482210453335e-01
1.292050345548000911e-01
1.241300846525963814e-01
1.185071490869114563e-01
1.125708664479188603e-01
1.065059553999405662e-01
1.004525485249748579e-01
9.451349859871890913e-02
8.876182910878668841e-02
8.324740634914888637e-02
7.800249848496203231e-02
7.304620767985918472e-02
6.838790796664530325e-02
6.402987017594319319e-02
5.996924514811916018e-02
5.619955659087891298e-02
5.271182173862402204e-02
4.949539175396079627e-02
4.653858152424944494e-02
4.382914044078878996e-02
4.135460294427560635e-02
3.910254763977465131e-02
3.706078644012732182e-02
3.521750048223587504e-02
3.356133423434044805e-02
3.208145924202539245e-02
3.076761254898580100e-02
2.961011734359780476e-02
2.859988911138040130e-02
2.772843109100949638e-02
2.698782218598785171e-02
2.637069829861227177e-02
2.587022971681076505e-02
2.548009546368886283e-02
2.519445536196459820e-02
2.500792007542824644e-02
2.491552028622883580e-02
2.491267552784929770e-02
2.499516127653114705e-02
2.515907541497581015e-02
